leadI,sensor_1
60
57
62
70
65
67
68
72
77
87
83
78
77
82
75
72
72
76
70
70
72
79
77
81
88
84
88
97
91
91
98
104
114
114
123
119
125
138
137
139
150
154
142
153
166
159
173
182
186
188
195
194
203
202
209
205
218
221
225
230
234
221
220
220
217
224
230
231
241
233
238
239
234
230
225
220
211
205
201
195
195
167
159
148
132
122
124
118
122
97
77
70
61
51
47
44
42
48
43
34
27
23
11
9
9
-9
-10
-16
-8
-9
-9
-12
-20
-14
-22
-18
-23
-21
-18
-23
-12
-22
-27
-33
-41
-51
-54
-42
-54
-49
-51
-69
-73
-64
-67
-71
-71
-72
-62
-64
-59
-53
-58
-64
-66
-63
-51
-53
-52
-39
-36
-46
-53
-49
-45
-41
-33
-33
-37
-48
-46
-38
-38
-37
-39
-42
-38
-31
-34
-39
-37
-36
-36
-32
-39
-36
-33
-39
-44
-41
-36
-36
-53
-52
-33
-41
-38
-25
-35
-40
-39
-35
-30
-24
-41
-55
-48
-49
-30
-57
-71
-67
-75
-72
-70
-67
-69
-67
-68
-66
-66
-72
-76
-70
-76
-83
-83
-79
-78
-71
-66
-73
-71
-72
-74
-72
-81
-74
-75
-79
-82
-85
-93
-87
-93
-95
-85
-81
-80
-81
-84
-93
-86
-86
-83
-83
-93
-101
-93
-92
-82
-83
-87
-88
-90
-92
-96
-90
-89
-86
-81
-86
-98
-101
-98
-90
-81
-86
-92
-92
-89
-90
-91
-106
-93
-95
-91
-93
-98
-94
-95
-101
-101
-107
-102
-95
-101
-92
-93
-95
-93
-90
-89
-88
-89
-95
-98
-97
-93
-91
-94
-91
-96
-100
-99
-98
-93
-92
-89
-100
-100
-106
-110
-111
-105
-97
-95
-78
-74
-82
-79
-89
-93
-94
-86
-82
-74
-61
-52
-45
-37
-32
-38
-33
-18
-3
-3
-3
11
17
26
24
12
14
-4
-19
-26
-22
-29
-28
-47
-66
-70
-81
-98
-108
-108
-98
-112
-123
-121
-118
-114
-112
-111
-119
-123
-128
-125
-124
-119
-128
-130
-127
-134
-143
-142
-142
-137
-125
-101
-94
-104
-124
-97
-40
26
112
217
383
487
577
722
857
965
1058
1106
1090
995
842
668
451
253
88
-35
-31
-50
-76
-99
-118
-127
-140
-149
-149
-147
-149
-136
-121
-103
-97
-94
-99
-100
-99
-107
-107
-101
-97
-101
-103
-94
-98
-100
-101
-101
-92
-91
-88
-92
-93
-83
-78
-93
-97
-87
-91
-94
-87
-87
-87
-84
-79
-83
-86
-97
-100
-98
-102
-95
-87
-81
-75
-84
-78
-84
-89
-85
-81
-80
-77
-76
-79
-82
-82
-85
-78
-73
-71
-67
-55
-60
-70
-66
-48
-34
-45
-36
-39
-40
-39
-51
-52
-42
-41
-30
-27
-22
-11
-8
3
8
1
1
4
10
11
17
28
37
43
45
45
49
64
61
63
71
96
101
92
112
116
107
111
112
109
111
114
107
112
122
125
111
111
115
100
92
99
91
86
89
87
80
66
49
48
48
39
32
17
10
3
0
-12
-27
-30
-37
-39
-50
-52
-54
-64
-71
-74
-84
-87
-93
-84
-87
-82
-80
-83
-93
-91
-78
-81
-81
-66
-73
-79
-99
-92
-89
-89
-87
-93
-98
-95
-95
-91
-93
-99
-103
-93
-98
-111
-112
-104
-99
-100
-93
-107
-113
-119
-114
-115
-119
-114
-120
-119
-114
-115
-120
-121
-119
-112
-102
-103
-105
-100
-103
-110
-107
-112
-109
-103
-107
-102
-100
-91
-96
-96
-94
-94
-90
-108
-111
-112
-108
-110
-107
-101
-105
-111
-109
-115
-110
-107
-109
-97
-92
-89
-95
-105
-110
-104
-100
-99
-96
-107
-100
-105
-98
-104
-111
-110
-104
-107
-106
-100
-96
-100
-103
-100
-102
-97
-103
-111
-116
-125
-120
-129
-129
-123
-117
-113
-114
-116
-105
-108
-111
-114
-110
-108
-109
-113
-111
-102
-115
-125
-133
-128
-126
-127
-124
-127
-123
-121
-121
-123
-119
-120
-121
-114
-116
-126
-124
-107
-109
-114
-110
-106
-112
-112
-113
-121
-115
-116
-121
-118
-116
-115
-118
-122
-118
-126
-127
-121
-128
-141
-137
-142
-141
-144
-147
-151
-141
-145
-141
-137
-133
-132
-138
-136
-134
-130
-126
-118
-117
-113
-104
-102
-95
-93
-117
-121
-115
-120
-127
-115
-110
-100
-108
-103
-103
-102
-101
-98
-106
-106
-94
-83
-80
-67
-60
-56
-57
-53
-50
-34
-14
-11
-2
-4
7
4
8
0
-3
-14
-13
-24
-33
-51
-69
-83
-92
-88
-101
-107
-115
-124
-127
-131
-134
-141
-146
-130
-137
-143
-144
-155
-160
-165
-169
-169
-169
-162
-156
-155
-150
-149
-154
-153
-145
-121
-112
-110
-131
-112
-62
5
80
172
345
471
574
731
883
989
1091
1146
1116
1004
838
631
414
223
36
-90
-93
-118
-149
-163
-191
-197
-202
-185
-166
-171
-161
-161
-155
-135
-144
-150
-148
-153
-154
-148
-142
-141
-147
-145
-144
-150
-147
-143
-148
-143
-138
-135
-146
-140
-142
-139
-134
-138
-142
-145
-144
-141
-143
-147
-137
-142
-141
-138
-132
-131
-133
-128
-129
-124
-120
-124
-135
-139
-129
-127
-122
-118
-123
-118
-113
-116
-112
-112
-115
-109
-110
-104
-106
-103
-98
-94
-100
-95
-85
-83
-77
-73
-73
-73
-72
-74
-74
-70
-59
-51
-45
-41
-51
-44
-40
-27
-15
-12
-4
6
3
5
1
14
19
21
29
42
43
50
64
75
82
78
72
74
81
90
97
92
95
96
91
91
93
102
97
97
103
104
107
102
85
76
73
64
54
54
40
33
25
14
1
-8
-14
-28
-32
-33
-37
-59
-66
-71
-83
-92
-98
-106
-113
-108
-113
-118
-125
-123
-121
-122
-129
-131
-134
-133
-136
-138
-131
-135
-136
-132
-130
-141
-137
-136
-148
-141
-132
-139
-144
-145
-140
-134
-134
-135
-124
-133
-127
-131
-139
-139
-142
-133
-123
-112
-110
-108
-112
-111
-120
-111
-115
-125
-123
-121
-118
-115
-107
-106
-111
-121
-119
-104
-102
-101
-108
-104
-101
-105
-103
-99
-101
-104
-107
-100
-99
-107
-95
-103
-117
-114
-113
-104
-104
-109
-101
-103
-108
-102
-108
-109
-106
-111
-105
-110
-110
-107
-103
-107
-108
-103
-111
-108
-117
-123
-118
-114
-117
-124
-131
-127
-126
-135
-142
-131
-128
-142
-124
-118
-127
-133
-132
-136
-140
-119
-125
-133
-134
-131
-135
-129
-134
-142
-129
-129
-132
-132
-140
-133
-131
-138
-135
-137
-137
-126
-128
-133
-137
-130
-133
-127
-128
-136
-138
-133
-137
-131
-126
-128
-136
-145
-138
-149
-143
-133
-121
-127
-138
-142
-142
-127
-131
-139
-142
-144
-142
-143
-134
-121
-129
-132
-139
-135
-139
-138
-128
-142
-148
-148
-157
-152
-156
-155
-149
-142
-131
-142
-140
-129
-134
-132
-121
-133
-135
-135
-136
-111
-120
-127
-131
-122
-124
-135
-142
-141
-138
-129
-135
-137
-136
-133
-142
-143
-132
-113
-108
-108
-96
-87
-91
-88
-73
-59
-68
-57
-53
-46
-26
-21
-34
-43
-41
-47
-51
-49
-64
-78
-81
-102
-115
-126
-142
-153
-158
-166
-158
-165
-182
-187
-194
-198
-187
-191
-186
-189
-179
-181
-180
-187
-185
-182
-188
-178
-191
-191
-195
-197
-194
-174
-164
-141
-157
-177
-154
-92
-17
64
186
366
469
603
794
924
1024
1086
1101
1032
900
706
466
265
72
-98
-164
-163
-199
-209
-232
-248
-244
-252
-225
-218
-218
-199
-190
-180
-158
-148
-148
-159
-158
-157
-155
-153
-141
-153
-146
-148
-147
-146
-143
-153
-160
-144
-152
-142
-140
-135
-149
-154
-154
-148
-146
-141
-139
-139
-136
-136
-151
-155
-143
-150
-155
-149
-144
-141
-144
-134
-128
-127
-128
-136
-134
-132
-125
-126
-122
-114
-123
-109
-101
-106
-108
-105
-114
-104
-100
-84
-79
-84
-97
-89
-84
-77
-80
-67
-62
-57
-71
-57
-54
-56
-55
-43
-40
-29
-22
-10
-10
-8
-8
-12
2
2
17
16
31
41
45
45
47
44
51
64
71
72
81
86
88
99
102
103
115
112
105
103
104
106
118
114
115
100
101
99
97
89
84
94
80
59
64
58
46
37
28
22
15
5
-5
-23
-31
-43
-55
-44
-65
-75
-68
-80
-95
-91
-100
-94
-93
-100
-106
-112
-118
-115
-128
-122
-124
-131
-126
-112
-114
-120
-116
-113
-119
-148
-129
-134
-128
-125
-128
-121
-120
-127
-136
-139
-132
-131
-133
-127
-125
-131
-119
-113
-125
-135
-131
-115
-117
-113
-109
-106
-116
-112
-111
-119
-126
-123
-124
-117
-127
-127
-106
-122
-124
-116
-124
-131
-119
-128
-134
-132
-119
-117
-117
-111
-131
-143
-139
-131
-132
-124
-117
-125
-115
-124
-123
-119
-130
-128
-131
-126
-127
-114
-118
-123
-122
-123
-136
-129
-109
-115
-122
-125
-113
-118
-127
-137
-134
-126
-124
-131
-127
-125
-124
-129
-136
-139
-140
-149
-138
-131
-132
-131
-132
-112
-136
-146
-130
-139
-129
-141
-134
-130
-143
-153
-141
-145
-142
-141
-136
-145
-137
-142
-144
-141
-145
-152
-146
-153
-145
-140
-129
-133
-148
-145
-148
-151
-157
-158
-147
-146
-143
-149
-149
-140
-138
-141
-144
-128
-122
-137
-141
-135
-121
-146
-140
-148
-147
-146
-137
-122
-120
-123
-135
-148
-154
-142
-130
-131
-137
-133
-143
-148
-141
-148
-142
-131
-128
-106
-108
-114
-95
-84
-93
-93
-96
-73
-61
-62
-51
-46
-40
-33
-42
-47
-41
-44
-52
-60
-81
-106
-118
-115
-130
-154
-157
-161
-177
-168
-165
-173
-168
-157
-171
-180
-174
-181
-178
-187
-177
-182
-186
-182
-187
-187
-173
-184
-183
-192
-177
-173
-161
-148
-143
-150
-170
-132
-64
0
72
178
354
464
576
740
875
971
1026
1047
980
842
660
448
241
56
-108
-165
-162
-191
-201
-224
-241
-231
-223
-205
-192
-192
-179
-165
-161
-140
-150
-143
-135
-136
-143
-127
-143
-138
-127
-124
-111
-115
-125
-145
-141
-126
-119
-118
-127
-128
-127
-118
-94
-108
-106
-116
-113
-103
-99
-96
-97
-81
-85
-104
-106
-108
-108
-95
-92
-87
-90
-97
-91
-84
-85
-85
-76
-79
-85
-80
-68
-66
-61
-63
-54
-56
-44
-54
-60
-56
-56
-41
-50
-39
-35
-25
-45
-41
-24
-21
-29
-16
-7
-11
-8
-25
-16
4
0
13
29
31
32
42
62
53
57
70
80
84
98
99
102
110
114
108
126
127
140
134
127
147
142
142
147
141
147
149
149
155
174
152
163
154
145
148
144
141
126
131
124
109
98
80
80
62
53
43
32
30
26
16
-3
-9
-12
-32
-38
-49
-46
-55
-66
-69
-64
-63
-68
-77
-73
-82
-81
-62
-80
-75
-83
-89
-87
-93
-81
-71
-61
-69
-75
-76
-67
-81
-69
-79
-78
-80
-63
-79
-73
-71
-75
-76
-83
-105
-103
-99
-89
-82
-87
-80
-87
-87
-91
-91
-83
-87
-82
-89
-83
-79
-89
-91
-81
-78
-90
-88
-90
-76
-69
-76
-84
-92
-87
-95
-93
-88
-100
-91
-92
-92
-93
-77
-87
-106
-89
-91
-96
-104
-85
-79
-70
-99
-102
-88
-91
-97
-94
-95
-83
-89
-94
-94
-99
-105
-107
-101
-101
-99
-99
-88
-95
-102
-106
-109
-103
-92
-84
-99
-102
-99
-104
-106
-88
-86
-96
-102
-103
-101
-100
-106
-113
-115
-114
-110
-120
-117
-116
-103
-97
-100
-102
-103
-108
-109
-102
-100
-95
-91
-64
-79
-92
-95
-100
-98
-100
-100
-88
-85
-80
-76
-87
-80
-91
-87
-80
-73
-71
-80
-82
-70
-76
-75
-65
-77
-80
-79
-78
-80
-81
-79
-90
-89
-88
-86
-94
-89
-68
-72
-81
-64
-60
-66
-74
-72
-76
-70
-50
-34
-34
-20
-16
-19
-16
-10
-16
2
5
10
14
17
36
46
32
31
28
27
32
16
10
13
-4
-32
-32
-55
-71
-71
-81
-83
-86
-75
-83
-87
-90
-88
-95
-99
-95
-77
-87
-80
-75
-82
-88
-81
-92
-100
-85
-87
-93
-80
-75
-50
-37
-47
-65
-63
-21
52
132
217
352
472
575
704
835
947
1031
1071
1057
977
830
647
434
239
76
-41
-47
-68
-95
-108
-124
-142
-142
-142
-132
-119
-104
-107
-103
-88
-77
-77
-69
-70
-77
-74
-79
-69
-66
-72
-66
-69
-68
-66
-66
-70
-65
-64
-56
-47
-52
-52
-48
-50
-49
-43
-42
-39
-47
-45
-51
-46
-44
-41
-39
-44
-43
-38
-31
-21
-15
-36
-50
-42
-41
-37
-32
-29
-33
-26
-27
-32
-22
-29
-32
-21
-13
-17
-13
-11
-17
-26
-18
-9
-1
-4
-3
0
5
14
16
12
14
10
10
13
15
28
40
46
43
43
49
57
63
73
80
86
84
88
91
96
104
110
114
116
130
139
154
156
159
156
152
164
156
163
167
172
166
176
174
164
174
161
161
162
165
158
155
151
145
137
132
125
118
96
98
87
80
62
61
48
48
35
28
15
10
14
6
-1
-2
-18
-12
-16
-25
-22
-17
-25
-15
-13
-21
-14
-17
-24
-33
-31
-33
-38
-37
-28
-32
-28
-37
-47
-44
-47
-51
-52
-45
-38
-35
-40
-42
-42
-51
-52
-45
-51
-52
-45
-42
-52
-55
-52
-52
-43
-41
-44
-46
-53
-53
-56
-72
-73
-70
-66
-56
-60
-56
-46
-56
-59
-54
-53
-54
-47
-35
-39
-39
-35
-38
-39
-32
-21
-42
-42
-39
-45
-43
-53
-51
-62
-66
-63
-56
-60
-62
-61
-53
-52
-51
-59
-56
-52
-59
-56
-43
-46
-67
-60
-60
-59
-59
-65
-67
-69
-64
-66
-59
-59
-59
-62
-69
-69
-73
-65
-66
-61
-68
-67
-77
-83
-81
-79
-84
-86
-83
-78
-81
-80
-85
-88
-86
-85
-91
-104
-103
-102
-106
-108
-115
-113
-106
-100
-107
-107
-104
-101
-104
-95
-97
-100
-95
-93
-98
-113
-103
-100
-99
-95
-90
-93
-94
-97
-95
-100
-95
-92
-93
-87
-95
-100
-96
-92
-91
-89
-81
-88
-83
-73
-73
-85
-80
-84
-77
-78
-79
-77
-76
-76
-75
-78
-74
-72
-65
-75
-75
-78
-81
-81
-84
-79
-73
-64
-50
-42
-31
-26
-30
-28
-19
-11
0
10
7
16
37
43
39
44
26
15
7
8
6
-2
0
2
-15
-29
-42
-56
-60
-73
-80
-81
-76
-88
-93
-85
-82
-85
-83
-87
-90
-94
-88
-92
-90
-91
-93
-91
-102
-102
-98
-106
-93
-83
-67
-51
-63
-80
-51
-1
63
144
247
407
512
605
745
867
964
1070
1124
1107
1032
886
715
495
311
147
17
25
5
-29
-39
-52
-72
-85
-84
-92
-97
-96
-91
-83
-69
-68
-80
-79
-79
-80
-82
-68
-64
-68
-68
-61
-67
-63
-59
-67
-76
-71
-74
-75
-70
-62
-64
-54
-49
-56
-64
-67
-68
-77
-67
-55
-67
-55
-57
-58
-60
-66
-61
-49
-55
-62
-65
-58
-48
-52
-54
-44
-45
-52
-51
-43
-47
-55
-57
-54
-44
-37
-42
-46
-39
-37
-34
-33
-28
-38
-33
-26
-32
-32
-21
-12
-12
-4
1
1
13
14
16
23
26
28
33
42
49
50
54
55
45
47
63
78
94
102
107
109
120
124
128
130
144
145
132
137
142
144
147
152
152
153
165
165
175
177
180
175
172
172
171
167
165
162
152
135
127
107
97
90
73
65
60
50
40
31
28
20
9
21
1
-4
-3
-16
-18
-12
-12
-23
-28
-33
-33
-41
-38
-39
-39
-38
-41
-49
-51
-40
-47
-42
-45
-45
-51
-53
-47
-51
-43
-43
-41
-44
-46
-43
-37
-33
-31
-40
-44
-47
-46
-46
-41
-43
-40
-40
-42
-50
-55
-57
-51
-54
-53
-50
-41
-40
-44
-50
-48
-48
-49
-57
-53
-49
-43
-45
-43
-39
-47
-45
-46
-47
-42
-38
-38
-28
-32
-39
-37
-45
-39
-40
-40
-46
-43
-38
-40
-42
-40
-39
-38
-43
-38
-40
-41
-30
-29
-39
-40
-40
-50
-43
-40
-43
-40
-21
-19
-27
-26
-30
-34
-31
-30
-31
-32
-18
-27
-25
-28
-32
-32
-36
-34
-32
-39
-39
-31
-42
-45
-45
-45
-42
-29
-26
-28
-33
-37
-39
-42
-43
-46
-53
-62
-59
-52
-43
-47
-49
-49
-54
-56
-57
-54
-48
-47
-42
-40
-40
-41
-36
-41
-46
-40
-39
-41
-40
-37
-47
-46
-47
-49
-52
-55
-52
-53
-47
-52
-50
-46
-43
-32
-25
-27
-40
-44
-47
-47
-58
-55
-54
-57
-52
-42
-45
-45
-34
-35
-39
-39
-38
-37
-39
-43
-41
-41
-39
-38
-42
-42
-37
-37
-40
-35
-29
-27
-29
-29
-32
-31
-21
-24
-30
-25
-19
-25
-26
-20
-18
-4
9
19
20
29
40
30
42
55
58
58
57
66
76
76
93
79
72
62
50
43
36
22
12
8
-3
-12
-24
-25
-37
-39
-47
-58
-61
-61
-61
-69
-72
-71
-78
-77
-80
-82
-85
-81
-74
-69
-81
-78
-80
-80
-83
-81
-75
-60
-37
-37
-54
-59
-15
55
135
219
357
528
613
742
907
1031
1131
1218
1237
1157
1037
866
661
451
268
117
52
47
17
0
-33
-49
-62
-63
-58
-60
-56
-57
-51
-48
-46
-48
-45
-52
-57
-52
-48
-49
-49
-46
-45
-38
-33
-31
-36
-42
-50
-61
-58
-51
-43
-42
-52
-52
-53
-60
-60
-55
-52
-46
-47
-41
-40
-39
-30
-42
-54
-64
-56
-55
-61
-50
-48
-53
-52
-50
-44
-44
-39
-41
-40
-39
-34
-29
-25
-27
-31
-32
-32
-35
-31
-34
-30
-29
-20
-18
-16
-14
-8
-5
-11
-7
1
6
2
13
18
26
30
33
33
37
39
44
51
57
62
70
78
84
86
102
104
109
114
135
131
136
139
144
142
142
151
161
167
163
162
172
178
176
162
161
159
165
173
172
167
165
168
167
147
148
138
138
134
121
106
98
96
89
70
65
53
41
36
32
21
11
7
1
-9
-17
-19
-21
-24
-25
-32
-35
-29
-29
-40
-41
-44
-40
-34
-37
-39
-39
-42
-44
-52
-53
-48
-47
-43
-43
-48
-45
-47
-50
-53
-49
-48
-53
-60
-61
-65
-70
-66
-66
-68
-68
-67
-66
-60
-52
-61
-61
-55
-64
-69
-67
-67
-67
-67
-60
-69
-73
-75
-74
-77
-74
-67
-72
-69
-73
-71
-79
-82
-85
-83
-79
-80
-70
-63
-59
-58
-73
-71
-72
-73
-74
-69
-58
-55
-62
-70
-71
-72
-69
-73
-67
-67
-81
-90
-82
-79
-94
-87
-84
-89
-87
-85
-85
-85
-68
-70
-70
-65
-75
-79
-69
-69
-72
-75
-77
-84
-86
-83
-80
-80
-72
-71
-72
-75
-75
-88
-85
-81
-87
-86
-90
-87
-86
-79
-70
-70
-80
-86
-87
-83
-81
-74
-75
-80
-85
-82
-75
-83
-80
-78
-72
-81
-89
-81
-81
-81
-82
-84
-100
-100
-89
-84
-93
-79
-74
-74
-79
-88
-94
-92
-101
-94
-90
-82
-75
-68
-68
-65
-77
-68
-68
-74
-64
-61
-66
-75
-76
-80
-89
-95
-76
-77
-75
-78
-74
-77
-79
-78
-83
-87
-86
-82
-84
-89
-87
-88
-94
-86
-90
-94
-86
-72
-68
-68
-69
-79
-85
-97
-93
-95
-94
-80
-67
-61
-58
-73
-71
-61
-71
-65
-55
-41
-30
-19
-12
0
7
0
-2
0
16
40
46
41
52
55
52
50
49
38
14
16
17
-1
-14
-28
-40
-57
-64
-77
-86
-88
-93
-93
-94
-98
-108
-114
-110
-109
-110
-108
-109
-105
-109
-114
-121
-124
-123
-125
-126
-111
-118
-114
-123
-103
-74
-81
-94
-106
-77
-15
69
147
281
457
564
685
875
1012
1115
1202
1222
1145
1014
834
602
400
207
33
-42
-37
-67
-85
-113
-129
-127
-145
-134
-112
-95
-87
-86
-79
-60
-66
-72
-88
-87
-79
-81
-68
-64
-53
-53
-66
-72
-72
-62
-55
-59
-63
-60
-52
-57
-72
-59
-69
-65
-70
-61
-59
-57
-46
-52
-55
-55
-54
-59
-61
-53
-39
-43
-36
-43
-50
-43
-46
-40
-47
-42
-51
-41
-37
-26
-27
-38
-33
-26
-35
-23
-23
-17
-17
-15
-17
-13
-8
-11
-8
-1
-11
3
9
0
5
16
16
17
18
22
26
33
49
61
71
73
67
75
87
101
116
121
130
134
129
132
137
136
148
160
175
177
169
175
186
192
196
207
203
201
206
198
191
201
209
203
197
196
200
205
213
201
193
179
177
160
152
152
132
131
109
115
115
108
88
96
79
64
54
56
54
51
41
29
15
9
14
13
1
1
0
-6
0
3
0
5
-3
-2
-5
-4
-11
-17
-12
-17
-26
-20
-11
-17
-20
-12
-15
-23
-23
-15
-14
-14
-11
-20
-25
-25
-15
-19
-24
-22
-21
-10
-13
-16
-22
-14
-8
-15
-11
-4
-10
-18
-6
-6
-12
-9
-11
-8
-15
-7
-7
-16
-13
-2
-13
-3
-3
0
2
1
-2
-3
-3
1
-2
0
-5
4
-1
8
10
9
8
8
1
0
5
11
4
-2
8
3
-5
-12
-12
-11
-19
-20
-15
-16
-18
-16
-11
-10
-23
-10
-5
-5
6
7
-13
-12
-6
-14
-13
-19
-13
-13
-5
-5
-15
-12
-14
-5
-14
-3
6
-6
-10
-8
0
-5
0
0
-12
-6
-4
-9
-9
-14
-5
-3
-1
-3
-7
-1
5
-5
1
10
4
-6
-8
-11
-6
-10
-7
-1
-4
-5
-6
-17
-19
-17
-21
-13
-2
-13
-17
-22
-23
-31
-35
-34
-34
-23
-24
-19
-5
-11
-18
-16
-11
-6
-8
-12
-4
-4
-6
3
-5
-8
-3
-7
-4
1
8
3
-13
-8
-10
-5
2
9
-4
-2
-5
7
12
15
14
14
19
17
10
13
20
14
6
1
1
0
-1
-3
1
4
20
24
22
24
16
15
13
14
15
32
49
55
63
70
65
56
63
81
92
92
107
120
117
117
104
110
99
95
87
76
66
58
47
31
17
12
1
-2
-14
-12
-11
-20
-23
-27
-35
-39
-27
-28
-32
-26
-23
-36
-30
-27
-29
-30
-32
-37
-34
-22
-30
-25
-5
26
20
1
-9
24
84
153
241
367
531
632
753
923
1049
1139
1205
1224
1136
992
817
593
385
200
41
-2
-26
-43
-43
-80
-92
-75
-83
-74
-63
-63
-48
-31
-14
0
-8
-7
-13
-18
-10
-3
-7
-6
-3
-5
0
-7
-8
-13
-19
-22
-25
-24
-8
-5
-1
-8
-14
-9
-9
-6
-17
-21
-16
-11
-11
-10
-17
-21
-22
-16
-30
-18
-9
-1
-2
1
6
6
2
10
0
9
11
14
18
23
27
26
23
15
12
22
23
16
22
36
39
37
42
41
44
62
64
61
69
75
74
71
85
76
73
84
97
93
96
115
112
120
122
121
128
133
144
155
155
169
174
173
182
190
199
200
211
210
220
217
213
215
219
217
218
221
217
227
226
240
232
227
223
225
220
220
220
221
213
196
183
175
167
160
147
139
131
130
125
116
111
110
87
84
83
86
76
67
64
60
47
43
36
28
34
29
28
24
26
21
19
21
22
12
3
17
13
7
20
16
13
10
8
6
5
2
6
16
17
11
8
8
12
11
14
17
19
22
22
20
21
14
10
14
9
8
9
7
6
13
10
4
-2
7
2
11
12
11
12
19
18
20
20
20
18
19
19
25
30
37
34
30
39
40
27
31
25
26
28
28
22
18
19
22
22
27
34
28
28
26
21
20
34
29
17
28
35
30
24
21
10
13
24
28
29
27
34
35
38
44
40
35
30
23
14
18
23
18
11
17
11
8
10
8
5
2
5
10
15
15
15
4
8
12
15
14
12
12
8
7
5
0
2
0
-19
-5
3
-4
-6
-1
0
4
2
2
10
5
10
9
8
5
1
-5
1
-5
-9
2
10
16
16
13
6
3
0
-1
-4
-3
0
1
5
11
1
-1
-4
-15
-19
-12
-5
-4
0
1
2
2
10
21
25
15
19
7
-6
4
6
1
-3
0
8
9
16
24
17
22
19
4
8
15
8
9
11
5
3
10
20
21
18
23
36
41
37
32
41
44
36
38
46
50
50
57
61
60
66
67
59
56
61
70
77
87
108
114
121
121
117
114
126
127
136
144
153
148
143
141
134
135
124
114
99
101
98
88
65
60
48
43
38
29
12
16
8
12
16
19
14
11
11
2
4
7
15
14
9
9
-3
2
6
-6
-8
0
8
27
44
52
35
18
52
112
181
272
391
556
652
766
939
1073
1169
1258
1303
1256
1132
970
771
559
356
188
103
114
77
65
44
19
8
1
11
15
19
19
13
31
41
39
34
23
19
23
27
30
29
34
25
18
18
25
21
25
25
31
42
42
47
60
47
45
38
41
43
44
43
46
44
46
49
49
48
53
49
51
51
54
59
56
62
59
51
45
47
45
54
55
62
61
63
63
58
59
59
69
66
59
64
65
64
70
69
77
71
76
83
83
87
91
102
116
124
124
122
110
109
124
128
136
140
146
147
154
159
169
166
176
185
190
192
206
213
216
219
221
228
240
243
253
247
243
238
245
248
252
253
260
266
270
270
281
278
270
272
267
245
245
244
239
237
233
217
209
199
179
170
169
169
159
144
146
137
133
119
108
102
102
98
100
93
89
74
76
74
71
72
75
71
66
62
58
61
62
64
56
44
44
53
57
48
45
43
43
34
28
26
28
23
23
28
23
17
15
14
10
12
19
21
26
24
17
14
12
15
16
19
16
13
16
23
26
19
26
20
16
16
22
17
18
23
20
15
20
18
15
16
20
14
22
33
31
31
29
32
35
28
32
30
24
21
26
23
25
33
32
23
30
29
30
35
40
32
15
19
20
14
15
21
14
14
16
16
16
16
16
11
18
14
11
7
6
4
4
0
4
4
6
-3
-3
2
14
10
3
1
-5
1
-1
-4
-10
-11
-7
-11
-9
-11
-7
-11
-2
13
2
-1
2
2
8
10
4
-3
6
4
-7
-5
-5
-5
-5
-3
-8
-12
-9
-9
-14
-6
-4
-3
-3
-2
0
1
3
0
-3
-2
1
-7
-7
-6
-2
-9
-14
-16
-13
-14
-8
-8
-6
-9
-8
-7
-5
-10
-8
-4
1
-6
1
5
-5
-6
5
0
0
-2
1
1
3
-1
-8
-13
-1
-3
3
7
0
-6
-9
-6
-8
-23
-18
-9
-13
-14
-17
-26
-24
-20
-26
-24
-13
-2
-1
0
0
-11
-10
1
-3
-17
-4
1
6
19
28
27
21
12
4
8
16
28
40
51
70
76
74
65
65
72
86
94
110
113
124
127
130
112
111
100
93
80
67
65
58
38
25
16
10
-11
-14
-22
-28
-32
-27
-37
-41
-45
-46
-45
-47
-58
-61
-63
-61
-64
-68
-68
-74
-78
-72
-73
-72
-67
-66
-45
-27
-28
-44
-57
-6
56
132
220
370
530
630
760
934
1063
1164
1233
1246
1173
1027
835
607
405
209
45
4
-13
-52
-69
-84
-101
-95
-111
-93
-92
-94
-79
-71
-54
-51
-58
-53
-55
-63
-67
-60
-63
-61
-59
-59
-53
-52
-50
-46
-46
-46
-43
-39
-40
-46
-44
-38
-32
-37
-36
-33
-43
-40
-26
-28
-34
-33
-26
-37
-50
-40
-43
-34
-30
-39
-41
-28
-33
-39
-33
-26
-24
-21
-11
-18
-33
-24
-19
-23
-20
-13
-10
-6
0
7
-1
-11
-1
3
5
15
25
27
36
41
35
39
40
31
48
61
70
70
75
76
80
83
95
96
91
101
97
115
126
125
138
145
142
147
151
172
175
176
191
184
173
182
180
180
183
191
189
196
204
206
212
210
208
196
192
201
201
195
199
196
181
183
181
167
143
150
131
120
113
103
95
90
72
62
56
56
58
49
44
37
32
19
25
11
16
13
10
8
15
12
0
2
1
-13
-10
-10
-1
-11
-9
-6
-12
-3
-16
-18
-7
-7
-12
-15
1
-2
-9
-16
-11
-22
-14
-11
-2
0
-12
-9
-10
-13
-12
-19
-7
-12
-17
-11
-7
-5
-6
-8
-5
-5
-5
3
2
-4
-5
0
-9
-11
-13
-19
-20
-16
-19
-18
-9
-12
-17
-5
-11
-10
-9
-12
-10
-2
-17
-13
-10
0
-15
-22
-4
-9
-2
2
-5
-12
-11
-17
-18
-23
-28
-29
-37
-32
-39
-39
-48
-41
-40
-35
-23
-31
-42
-35
-30
-44
-35
-42
-52
-49
-37
-54
-51
-44
-40
-42
-46
-46
-48
-58
-54
-43
-52
-55
-50
-54
-50
-44
-45
-44
-45
-33
-39
-42
-42
-32
-45
-43
-38
-33
-43
-43
-45
-42
-41
-37
-50
-42
-42
-46
-40
-39
-33
-47
-51
-38
-40
-27
-27
-39
-37
-33
-33
-39
-31
-23
-33
-43
-47
-50
-43
-46
-47
-38
-33
-50
-57
-54
-55
-57
-56
-52
-52
-62
-58
-61
-58
-48
-53
-50
-54
-40
-41
-54
-44
-42
-46
-40
-27
-19
-19
-25
-21
-17
-19
-24
-27
-32
-27
-26
-29
-26
-26
-24
-16
-12
-16
-18
-20
-28
-17
-9
-10
2
10
3
3
9
3
5
9
4
10
20
31
36
42
50
60
55
59
57
64
61
85
83
96
86
88
73
82
68
68
59
58
44
27
7
2
-14
-33
-36
-35
-36
-31
-35
-23
-43
-58
-53
-45
-51
-42
-46
-45
-43
-49
-45
-57
-68
-56
-54
-55
-46
-53
-51
-53
-39
-22
-12
-26
-52
-20
44
117
204
323
495
610
728
918
1045
1134
1199
1208
1122
987
795
562
358
168
-1
-50
-48
-76
-97
-139
-155
-142
-134
-111
-86
-90
-75
-59
-52
-42
-42
-40
-47
-41
-37
-31
-24
-33
-30
-26
-31
-41
-29
-25
-26
-32
-31
-21
-12
-22
-21
-20
-17
-4
-3
-9
-11
-1
1
6
1
6
-1
9
5
7
21
23
24
17
13
19
13
14
25
25
28
35
34
37
38
45
39
45
49
63
60
52
54
64
65
58
54
56
72
69
70
69
85
84
93
87
92
90
102
97
115
120
126
122
129
137
124
148
157
157
151
167
172
190
191
186
203
208
223
211
226
230
242
239
245
247
251
244
243
259
265
261
250
256
263
263
254
260
270
272
249
251
238
229
232
222
200
202
194
195
172
166
154
151
141
126
118
120
103
90
87
84
85
79
75
68
54
54
45
58
47
49
47
34
32
42
42
36
38
46
45
41
44
32
32
37
29
37
36
42
47
40
31
19
17
15
20
28
15
13
29
27
29
30
18
19
21
29
37
48
37
50
53
36
48
46
41
35
32
45
39
36
42
43
43
40
38
39
46
56
58
48
41
44
43
46
46
56
57
46
45
48
45
40
30
25
29
29
30
31
42
36
31
39
30
27
17
29
33
21
37
23
24
21
27
14
9
16
18
13
9
12
14
3
4
-4
-6
-2
-7
7
7
0
-11
-12
-12
-2
-10
4
0
3
0
11
18
22
16
13
7
16
7
16
-9
-4
-6
12
18
6
7
14
15
13
11
12
14
23
17
23
32
29
12
21
26
22
19
15
17
22
19
24
39
42
23
38
44
40
36
34
41
49
39
39
42
44
45
47
35
45
49
48
44
55
54
60
71
42
52
55
45
53
50
58
59
53
40
39
39
38
55
59
72
82
78
82
72
51
57
65
71
87
100
112
113
115
91
106
109
103
120
129
134
139
137
129
148
144
151
140
129
129
117
111
92
88
61
44
45
36
28
41
25
30
25
24
6
10
6
3
12
9
13
4
21
15
10
9
5
20
7
22
24
17
35
47
52
43
41
65
130
202
277
353
508
628
728
889
1024
1119
1194
1211
1164
1051
872
667
448
275
116
50
34
5
11
-15
-38
-41
-35
-16
0
7
23
39
41
52
63
63
46
52
55
64
56
64
54
56
55
50
51
50
45
38
51
56
74
85
77
59
66
58
66
72
70
78
70
70
76
80
64
76
78
78
72
87
91
82
85
82
76
81
82
87
94
95
95
90
88
92
91
85
99
95
96
104
100
102
114
121
114
114
120
114
112
121
124
122
135
132
132
141
150
173
166
172
165
166
174
183
201
209
207
195
208
229
207
230
226
240
256
265
267
268
267
273
290
284
290
301
300
299
306
312
307
307
309
308
303
314
312
297
297
286
280
286
288
267
277
262
250
244
234
232
222
215
209
197
187
178
164
155
139
134
137
134
113
92
96
111
83
77
77
78
77
75
78
72
77
83
83
65
69
79
73
79
78
72
77
79
70
57
61
74
69
74
84
79
85
80
75
68
61
60
61
69
61
55
64
75
71
65
56
72
72
80
84
74
64
63
67
78
72
58
61
72
71
72
67
77
73
77
75
66
79
84
89
83
91
90
95
98
87
92
89
87
94
90
101
100
85
84
89
85
88
92
100
94
81
73
72
72
65
59
64
62
58
69
67
70
61
49
51
46
41
55
47
50
55
54
49
45
50
46
32
45
42
47
42
48
59
49
42
39
45
48
42
40
53
37
43
48
40
52
48
50
46
54
45
45
43
44
45
50
47
46
44
39
44
45
46
49
44
34
30
38
38
41
40
29
23
36
37
23
27
32
28
27
24
30
30
34
33
31
36
28
32
27
36
37
31
39
35
41
53
49
38
29
29
24
26
43
38
34
36
34
37
26
31
37
42
55
63
64
70
87
93
92
89
94
107
111
113
114
132
144
142
153
145
140
132
126
121
114
114
124
93
90
78
69
61
50
46
43
45
51
48
37
41
31
23
34
31
28
31
25
20
22
30
29
15
12
14
21
26
39
61
75
74
56
53
102
164
229
315
460
602
687
818
965
1073
1166
1223
1225
1146
1016
839
637
446
271
119
80
79
56
44
31
11
6
4
25
21
16
27
42
62
68
73
76
69
63
62
57
55
63
63
74
80
77
83
84
83
85
83
77
89
90
80
77
84
77
76
84
106
117
112
123
114
114
94
89
87
85
92
88
95
96
96
94
97
103
113
108
97
98
97
103
103
111
115
114
109
108
102
103
112
119
124
128
135
138
137
130
134
137
138
145
146
154
163
151
145
152
159
165
171
170
174
180
186
186
192
197
199
200
212
217
222
230
253
255
246
258
265
273
278
289
295
299
312
295
290
291
289
291
300
303
313
309
312
307
308
308
310
306
301
296
290
281
277
265
246
231
221
216
214
206
198
191
184
171
157
147
138
132
130
135
132
114
113
110
108
105
105
92
96
100
99
98
106
99
90
74
74
78
86
96
97
90
83
74
75
79
82
79
84
86
81
81
86
76
73
72
75
69
81
76
73
77
72
70
74
71
69
67
69
70
74
79
79
83
79
84
89
90
79
88
85
84
83
87
88
87
85
76
84
83
77
87
86
78
69
75
81
80
82
88
84
83
90
88
81
76
72
71
76
74
81
83
78
58
62
57
52
49
56
62
70
64
64
57
55
53
55
50
61
65
57
70
65
63
62
63
61
58
62
61
63
63
69
54
49
55
55
50
54
44
40
47
48
39
35
41
46
42
40
45
36
36
39
25
24
31
28
21
29
32
25
26
25
24
22
15
21
27
37
33
23
27
29
26
31
30
28
34
43
48
44
33
41
44
43
36
39
33
27
23
27
34
45
41
39
42
40
41
47
35
41
49
52
38
32
35
38
45
37
35
41
35
38
29
26
30
30
26
33
31
32
27
37
31
26
20
20
14
19
24
24
35
44
34
29
23
22
17
27
26
28
40
36
32
15
13
13
10
17
26
31
34
33
31
36
30
26
29
38
44
53
62
68
85
81
79
86
98
119
115
125
135
142
144
150
144
138
136
132
124
120
116
105
106
80
64
50
38
29
29
23
22
17
14
14
14
14
9
9
8
24
13
10
2
7
7
0
-4
-3
-3
2
0
-8
3
26
32
22
-9
16
68
155
227
328
499
625
730
882
1036
1145
1244
1288
1268
1161
992
796
588
396
222
105
99
75
37
14
-11
-13
-21
-24
-17
-16
-13
-13
1
11
16
11
4
-12
-14
-14
-4
-2
4
8
8
3
3
2
0
2
2
13
15
15
13
13
13
12
16
27
28
19
13
13
15
20
18
8
9
13
18
3
5
4
14
13
16
8
11
11
9
8
13
20
12
6
12
15
29
36
34
35
31
38
32
30
32
24
29
45
46
50
54
61
57
56
62
62
68
66
75
89
100
105
112
112
107
114
113
126
137
146
149
156
174
178
173
180
193
196
205
213
213
214
224
228
239
237
246
250
248
248
251
241
243
244
248
253
255
253
249
252
252
240
227
225
219
209
197
186
174
162
158
150
130
123
116
107
95
84
73
73
63
70
55
45
43
27
20
20
35
19
21
23
22
14
28
29
21
24
25
23
24
21
12
14
17
26
40
29
26
28
21
16
6
4
8
8
4
6
3
1
-4
0
0
7
5
7
3
3
12
18
19
7
8
7
7
8
14
21
8
9
16
14
16
15
20
21
20
23
20
26
26
30
31
35
36
31
31
39
42
41
33
10
13
26
28
28
27
36
35
25
31
35
27
30
23
21
23
28
28
30
42
30
22
26
30
35
29
29
25
33
32
26
22
17
15
17
22
23
25
17
20
19
15
17
22
21
26
28
24
12
15
5
7
9
10
11
9
14
17
23
15
14
7
-6
-9
-4
2
-1
-4
-5
0
-1
9
-5
-13
-11
-8
-12
-12
-11
-8
-8
-13
-12
-12
-19
-14
-12
-12
-18
-15
-17
-21
-25
-18
-19
-22
-17
-20
-30
-25
-27
-23
-20
-26
-30
-33
-31
-32
-28
-21
-16
-19
-25
-36
-36
-33
-38
-38
-41
-41
-43
-42
-43
-42
-45
-37
-39
-37
-38
-36
-31
-32
-28
-26
-21
-8
-23
-27
-24
-20
-33
-39
-34
-32
-35
-32
-26
-13
-10
-15
-20
-18
-11
-5
-6
2
6
0
-3
2
10
8
13
26
27
27
27
30
32
33
19
9
18
34
47
63
83
73
80
77
73
79
88
91
95
107
110
120
122
122
112
108
99
82
56
61
56
50
34
19
3
-2
-7
-27
-26
-29
-39
-40
-31
-42
-42
-43
-36
-40
-45
-40
-38
-55
-51
-48
-51
-49
-44
-43
-54
-55
-43
-37
-5
0
-11
-31
-8
45
109
205
335
519
632
757
939
1080
1191
1266
1293
1229
1089
910
687
480
284
99
18
11
-24
-37
-59
-89
-76
-84
-64
-47
-50
-42
-44
-27
-29
-24
-24
-23
-35
-34
-34
-27
-31
-30
-23
-23
-20
-27
-26
-29
-21
-28
-30
-26
-19
-24
-18
-11
-11
-11
-7
0
-11
-12
-6
-4
-4
1
-8
-9
-19
-16
-13
-1
3
5
-3
4
7
5
18
4
-12
4
12
5
12
8
5
-3
2
14
16
27
24
32
37
41
31
38
49
52
58
66
66
71
74
79
74
69
65
69
69
78
90
91
109
130
129
129
132
136
142
146
146
162
163
169
182
199
200
210
214
207
222
230
227
234
244
253
250
247
237
248
250
248
242
245
250
243
237
241
237
227
219
219
210
206
194
173
165
155
148
140
125
113
105
111
84
75
72
73
51
46
46
40
39
40
30
12
11
6
5
15
3
1
-1
14
-1
3
-2
1
0
0
9
-1
3
14
3
3
-10
-14
-15
-11
-9
3
-2
-6
-10
-7
-8
-12
-14
-1
-8
-13
-6
8
3
1
-2
-7
-4
0
18
6
-13
0
-7
5
9
7
7
8
13
4
10
7
14
10
3
12
10
1
7
9
22
17
17
22
25
47
30
21
20
24
22
10
17
20
13
15
22
24
23
23
17
23
23
5
2
6
0
2
7
13
0
8
8
1
1
-6
-1
-1
-1
-2
1
4
1
-2
0
-8
-12
-15
-21
-21
-18
-7
-11
-10
-4
1
-4
-22
-12
-11
-3
4
6
-2
-3
-4
-1
-8
-20
0
-12
-5
-19
-14
-9
-13
-10
-7
-8
-7
-5
-12
-14
-13
-1
-2
-13
-9
-9
-11
-12
-14
-15
-4
-3
-8
-10
-12
-18
-19
-15
-5
-22
-23
-8
-17
-23
-18
-22
-20
-19
-20
-11
-8
-15
-12
-5
0
3
-2
7
14
-1
-8
-1
-4
1
1
-6
-7
-7
-2
-6
-5
-11
-4
10
9
10
13
0
6
-2
8
23
32
32
32
33
45
50
38
41
42
59
61
74
57
72
85
81
80
93
89
94
107
109
105
118
119
102
119
106
99
95
77
62
62
36
33
23
10
10
13
1
3
-3
-5
-2
-6
-10
-19
-21
-22
-18
-4
-8
-12
-10
-13
-14
-20
-25
-24
-25
-33
-31
-23
-1
18
13
-9
-3
31
102
175
251
386
530
647
791
964
1079
1166
1221
1216
1135
966
772
537
354
157
1
-22
-38
-65
-67
-88
-109
-96
-69
-51
-48
-28
-24
0
4
5
10
11
9
23
21
18
20
18
26
18
20
29
37
23
15
14
15
29
19
22
16
18
29
34
20
24
33
33
33
40
42
37
45
32
40
41
32
21
26
28
38
48
41
31
33
44
53
43
29
36
34
50
67
63
51
50
51
49
55
55
77
76
89
88
76
73
87
96
92
109
110
109
104
109
115
118
130
128
141
145
144
153
166
183
182
189
182
183
189
209
213
221
224
232
251
249
254
271
281
273
272
270
283
297
276
283
299
288
273
287
283
264
270
282
266
265
264
255
250
251
253
244
228
210
193
195
184
176
166
169
155
138
129
136
117
110
107
92
95
107
89
74
75
80
53
67
66
62
43
59
34
43
44
50
37
37
30
37
19
44
29
24
34
36
40
25
26
28
20
17
11
12
15
9
1
-3
-1
-4
10
11
19
23
14
6
4
5
11
-11
0
2
2
5
11
8
7
17
8
-2
12
5
-7
15
19
10
8
11
24
23
23
13
13
15
25
36
19
16
19
24
20
19
18
14
14
19
21
21
12
-9
1
0
10
8
5
9
13
0
10
10
-3
-3
10
8
12
17
9
15
0
3
4
7
8
6
6
-1
2
-4
0
2
-3
-2
-2
-5
-3
0
2
-4
-7
-12
-8
-2
-9
0
7
-6
-13
-9
-17
-6
2
-14
-16
-15
-6
-5
-14
-1
3
-4
-1
-3
-3
-4
-3
-10
-12
-12
-13
0
0
-2
-10
-6
1
5
1
-2
-10
-13
7
3
-9
1
1
6
18
-3
-4
0
5
11
7
7
6
-3
-2
3
-11
-11
-17
-12
-13
-12
-9
-8
0
3
4
-1
-10
-8
-14
-6
-3
-3
-19
-19
-18
-21
-9
4
5
10
7
4
7
9
13
12
19
41
37
40
54
54
49
51
51
50
54
62
73
81
93
97
97
101
109
104
105
103
104
103
91
69
66
52
45
36
26
15
18
9
-2
-4
-5
-9
-8
-7
-6
-5
-5
-4
-5
-15
-22
-12
-9
-18
-14
-7
-19
-28
-20
-24
-15
7
26
25
9
9
51
114
186
260
389
528
624
751
913
1030
1115
1163
1176
1093
951
776
560
362
199
65
30
17
-3
-9
-27
-46
-45
-47
-31
-26
-23
-20
-7
15
25
32
30
21
19
14
19
19
27
39
34
23
30
27
31
34
39
42
38
47
44
38
23
19
22
30
36
42
39
40
50
40
36
29
34
42
44
50
53
63
44
43
51
40
48
62
54
45
47
54
47
43
47
45
52
56
58
58
64
63
55
69
64
58
72
79
79
77
85
93
95
89
94
99
109
115
118
112
117
123
129
145
139
142
147
155
164
158
171
187
188
196
202
199
202
217
221
237
243
253
245
246
259
269
276
279
282
282
281
282
284
295
286
275
280
287
275
272
269
257
235
224
222
211
198
191
184
173
166
151
134
132
124
118
110
94
87
78
78
67
62
51
51
57
59
58
47
49
47
46
45
40
37
22
31
41
37
37
44
38
44
43
45
36
36
49
38
37
43
42
39
36
26
34
42
23
14
18
17
13
17
22
21
27
30
28
28
36
30
30
24
28
28
5
11
19
22
18
9
17
20
24
17
14
17
18
14
15
14
15
18
12
8
8
12
18
25
15
4
1
0
-1
-3
4
8
12
14
16
22
8
1
8
7
2
-5
-2
2
-2
-4
0
0
-4
-5
0
8
3
2
5
5
2
-5
-2
2
-5
-6
0
0
7
3
-11
-6
0
-8
-13
-7
-8
-10
-6
-12
-18
-19
-13
-14
-21
-13
-14
-16
-13
-10
-14
-18
-18
-18
-17
-18
-24
-33
-19
-3
-32
-33
-29
-32
-31
-32
-28
-38
-41
-34
-31
-42
-39
-39
-41
-33
-35
-30
-40
-42
-45
-44
-47
-46
-46
-36
-43
-46
-37
-39
-34
-27
-25
-33
-39
-37
-33
-34
-35
-25
-33
-35
-30
-36
-42
-33
-35
-39
-41
-42
-42
-46
-43
-44
-37
-39
-33
-37
-39
-33
-33
-34
-34
-46
-42
-35
-31
-26
-31
-37
-38
-33
-47
-49
-44
-40
-49
-47
-43
-42
-42
-42
-36
-44
-39
-32
-29
-38
-30
-28
-33
-33
-26
-16
-28
-22
-18
-27
-28
-27
-32
-23
-15
-8
-11
-6
2
5
-4
-21
-19
-18
-9
-4
12
33
46
38
38
44
32
33
48
55
53
70
78
77
78
77
74
60
47
35
23
23
16
7
-6
-18
-32
-43
-61
-69
-73
-74
-70
-68
-75
-75
-88
-90
-86
-91
-87
-78
-84
-76
-84
-85
-92
-94
-94
-99
-99
-103
-97
-87
-69
-55
-70
-95
-88
-41
29
105
203
361
513
608
731
887
1002
1106
1178
1194
1117
992
819
607
402
229
87
32
14
-11
-33
-59
-76
-86
-94
-96
-93
-95
-93
-88
-73
-78
-75
-75
-83
-83
-85
-87
-89
-78
-75
-74
-69
-68
-66
-68
-65
-67
-67
-65
-60
-62
-60
-56
-62
-58
-56
-55
-53
-47
-50
-52
-62
-59
-58
-55
-56
-58
-52
-46
-48
-49
-56
-47
-49
-53
-45
-43
-45
-36
-37
-39
-32
-32
-35
-37
-26
-19
-19
-16
-13
-18
-14
-7
-12
-17
-9
-5
7
14
15
13
16
13
14
19
35
39
44
47
40
42
49
53
57
56
62
70
63
77
98
105
99
113
115
121
118
118
125
134
138
144
148
152
158
162
157
153
158
166
172
175
186
187
181
180
180
180
187
187
183
168
156
156
141
131
116
101
88
89
89
78
56
47
44
35
21
3
0
-2
-9
-12
-18
-19
-35
-38
-40
-43
-44
-38
-39
-45
-47
-49
-59
-57
-53
-60
-64
-68
-77
-80
-77
-74
-69
-73
-73
-79
-81
-73
-73
-76
-79
-63
-69
-68
-66
-69
-74
-74
-73
-71
-69
-58
-67
-73
-71
-69
-73
-70
-81
-85
-79
-73
-77
-73
-73
-69
-75
-69
-65
-69
-73
-70
-78
-74
-68
-72
-73
-75
-74
-70
-69
-73
-81
-78
-69
-72
-71
-68
-68
-72
-72
-66
-84
-75
-75
-83
-76
-67
-72
-81
-81
-76
-73
-75
-78
-85
-87
-86
-83
-90
-82
-81
-87
-91
-82
-80
-85
-76
-76
-82
-84
-88
-87
-88
-86
-85
-92
-87
-86
-80
-79
-77
-84
-88
-81
-76
-73
-67
-75
-81
-90
-91
-86
-83
-87
-88
-91
-85
-83
-89
-79
-76
-82
-93
-84
-92
-96
-92
-98
-97
-98
-101
-99
-99
-100
-95
-93
-90
-85
-80
-79
-83
-83
-92
-91
-91
-91
-85
-81
-81
-75
-80
-78
-79
-85
-82
-89
-92
-91
-76
-76
-82
-84
-90
-94
-101
-97
-87
-92
-91
-94
-89
-97
-94
-91
-91
-101
-95
-99
-99
-104
-100
-96
-87
-87
-88
-87
-85
-84
-86
-87
-85
-91
-89
-96
-98
-94
-84
-85
-86
-82
-81
-89
-85
-87
-80
-80
-77
-73
-73
-57
-65
-73
-71
-75
-81
-87
-80
-82
-81
-81
-76
-86
-78
-80
-83
-81
-80
-76
-79
-84
-83
-81
-83
-86
-81
-75
-69
-66
-66
-57
-53
-63
-74
-69
-54
-52
-45
-42
-46
-52
-60
-64
-52
-47
-40
-19
-3
9
14
15
16
4
3
15
27
31
38
44
50
47
39
33
27
18
13
11
6
3
-4
-21
-35
-48
-64
-70
-81
-87
-84
-88
-87
-88
-90
-101
-98
-93
-97
-102
-100
-104
-100
-102
-100
-107
-106
-99
-105
-110
-108
-109
-96
-82
-67
-74
-87
-95
-51
4
79
159
303
482
573
703
895
1028
1122
1213
1239
1155
1028
846
619
405
204
46
-22
-28
-47
-69
-97
-118
-118
-148
-133
-124
-121
-106
-94
-97
-88
-84
-90
-103
-108
-102
-105
-102
-95
-96
-96
-89
-90
-90
-87
-87
-88
-87
-85
-88
-90
-89
-92
-89
-87
-84
-77
-78
-74
-76
-70
-71
-72
-73
-72
-70
-79
-78
-64
-64
-73
-73
-69
-71
-73
-68
-67
-64
-65
-62
-66
-72
-77
-73
-66
-66
-61
-56
-46
-43
-49
-55
-35
-47
-44
-33
-32
-29
-19
-20
-13
-14
-11
-11
-9
0
-6
-6
6
11
9
14
21
24
39
38
43
42
49
53
60
71
81
78
90
93
99
110
119
134
136
146
148
141
144
149
159
169
169
171
180
178
171
165
160
153
157
155
152
152
145
144
130
112
110
98
94
93
86
68
54
48
24
8
15
6
-10
-30
-27
-32
-43
-39
-48
-58
-67
-70
-75
-74
-74
-72
-74
-69
-79
-77
-86
-102
-104
-100
-94
-102
-96
-96
-95
-103
-99
-102
-104
-98
-94
-101
-98
-94
-103
-108
-109
-109
-108
-107
-102
-113
-119
-111
-103
-108
-102
-113
-112
-115
-108
-106
-92
-92
-95
-93
-97
-87
-107
-100
-102
-107
-107
-106
-102
-107
-108
-103
-108
-107
-111
-111
-97
-89
-95
-90
-93
-98
-104
-101
-88
-86
-85
-86
-86
-86
-86
-103
-94
-88
-89
-80
-97
-98
-99
-100
-100
-102
-96
-101
-100
-101
-100
-92
-99
-100
-101
-100
-112
-104
-100
-102
-113
-112
-109
-97
-102
-107
-108
-102
-106
-101
-107
-106
-109
-111
-117
-114
-112
-114
-106
-103
-114
-104
-108
-110
-120
-121
-120
-111
-110
-125
-125
-120
-134
-126
-130
-125
-130
-134
-139
-144
-136
-127
-130
-135
-127
-132
-139
-142
-140
-124
-123
-119
-127
-124
-124
-126
-130
-130
-120
-118
-110
-119
-122
-131
-123
-131
-138
-142
-136
-139
-148
-156
-154
-160
-163
-164
-158
-163
-159
-160
-160
-158
-155
-148
-143
-148
-150
-152
-151
-155
-151
-148
-147
-154
-163
-164
-173
-167
-162
-165
-161
-153
-158
-162
-165
-157
-154
-149
-144
-154
-163
-161
-155
-149
-155
-152
-151
-150
-151
-156
-151
-157
-169
-165
-162
-164
-174
-170
-166
-167
-156
-165
-159
-159
-158
-161
-168
-162
-158
-161
-160
-155
-163
-168
-163
-169
-176
-161
-149
-157
-156
-159
-156
-150
-150
-160
-160
-157
-153
-146
-132
-138
-139
-138
-136
-142
-132
-111
-107
-101
-102
-98
-102
-106
-114
-114
-112
-105
-88
-85
-80
-66
-66
-65
-65
-73
-69
-60
-57
-43
-27
-35
-35
-41
-43
-51
-46
-58
-66
-71
-80
-78
-106
-110
-118
-143
-154
-154
-150
-158
-166
-174
-170
-169
-169
-173
-184
-170
-160
-170
-174
-172
-179
-185
-174
-176
-182
-184
-173
-175
-177
-173
-162
-151
-149
-159
-174
-145
-79
-16
59
171
343
467
591
762
914
1027
1114
1155
1110
978
797
583
362
173
-23
-129
-138
-165
-172
-189
-225
-233
-222
-214
-194
-173
-171
-155
-148
-138
-126
-120
-117
-136
-146
-137
-129
-127
-123
-109
-112
-116
-111
-126
-122
-116
-125
-118
-118
-117
-116
-111
-119
-121
-130
-125
-116
-112
-104
-110
-108
-105
-114
-112
-125
-112
-100
-104
-113
-107
-113
-104
-83
-104
-103
-100
-102
-104
-96
-92
-90
-101
-86
-90
-104
-106
-89
-87
-92
-78
-80
-74
-59
-71
-70
-62
-68
-53
-60
-53
-51
-39
-30
-45
-43
-36
-28
-16
-17
-1
5
9
11
-3
4
13
22
22
29
38
42
48
56
62
73
72
75
83
96
110
106
116
125
120
126
135
131
128
146
141
133
130
123
121
122
126
127
121
121
123
118
107
94
83
75
79
65
51
53
35
28
21
15
9
-11
-18
-15
-24
-43
-39
-45
-38
-53
-60
-67
-68
-79
-86
-88
-84
-94
-107
-107
-96
-94
-112
-106
-109
-113
-113
-128
-121
-123
-136
-135
-131
-119
-121
-122
-121
-125
-132
-133
-121
-124
-121
-127
-114
-114
-120
-116
-109
-112
-123
-129
-124
-129
-132
-122
-128
-134
-141
-145
-155
-155
-147
-137
-145
-156
-150
-154
-147
-149
-149
-151
-146
-149
-130
-143
-151
-145
-141
-140
-138
-139
-126
-130
-135
-144
-137
-135
-139
-143
-142
-143
-137
-138
-139
-145
-136
-141
-150
-149
-146
-140
-153
-156
-144
-136
-137
-143
-152
-147
-152
-147
-152
-159
-153
-163
-155
-161
-162
-158
-165
-168
-155
-141
-140
-149
-142
-161
-162
-162
-165
-147
-146
-158
-158
-141
-137
-132
-138
-136
-135
-147
-135
-140
-141
-122
-128
-134
-135
-135
-132
-146
-136
-137
-135
-130
-143
-139
-142
-140
-140
-154
-147
-138
-134
-135
-130
-132
-136
-129
-136
-144
-144
-151
-148
-145
-142
-143
-138
-143
-148
-144
-138
-136
-141
-139
-134
-142
-151
-145
-150
-146
-142
-150
-139
-140
-136
-148
-144
-143
-152
-143
-136
-135
-130
-135
-148
-138
-148
-149
-147
-139
-138
-147
-155
-149
-143
-142
-133
-138
-139
-133
-125
-133
-141
-145
-148
-137
-128
-141
-144
-136
-134
-132
-138
-137
-143
-148
-141
-138
-129
-134
-134
-127
-122
-139
-126
-140
-141
-141
-142
-135
-132
-145
-136
-126
-143
-133
-135
-132
-125
-133
-123
-116
-114
-98
-114
-112
-101
-95
-112
-133
-136
-128
-116
-106
-105
-89
-60
-65
-74
-71
-64
-77
-61
-55
-55
-47
-57
-41
-50
-44
-48
-49
-47
-42
-58
-67
-83
-94
-103
-113
-120
-134
-132
-158
-140
-139
-148
-155
-151
-148
-154
-156
-142
-141
-143
-161
-149
-154
-154
-162
-161
-161
-157
-169
-167
-155
-151
-144
-131
-110
-92
-114
-126
-112
-64
10
77
175
338
458
550
722
886
987
1061
1093
1074
949
812
616
386
211
28
-92
-98
-138
-146
-164
-187
-200
-199
-191
-177
-162
-158
-164
-150
-150
-143
-148
-139
-134
-130
-131
-135
-131
-135
-123
-120
-119
-124
-115
-116
-116
-106
-121
-138
-133
-127
-123
-122
-114
-117
-124
-121
-124
-124
-122
-124
-124
-123
-125
-133
-124
-122
-126
-118
-123
-128
-121
-121
-111
-114
-116
-112
-106
-101
-102
-111
-99
-95
-103
-97
-89
-98
-98
-104
-88
-84
-87
-79
-71
-71
-80
-68
-63
-77
-67
-67
-58
-52
-42
-43
-36
-39
-46
-33
-24
-16
-17
-16
-2
1
10
19
17
31
38
39
47
48
59
70
77
90
84
102
114
107
123
127
135
138
154
138
136
147
155
140
140
145
146
146
147
145
126
118
122
113
107
100
84
84
76
64
51
43
37
23
13
7
-2
-11
-25
-31
-43
-53
-55
-58
-64
-71
-85
-82
-74
-77
-84
-95
-88
-91
-91
-100
-94
-95
-93
-97
-87
-79
-87
-95
-102
-96
-102
-110
-113
-107
-111
-116
-120
-114
-107
-115
-124
-112
-113
-120
-119
-124
-121
-121
-122
-114
-105
-113
-118
-117
-130
-128
-128
-125
-125
-119
-110
-111
-112
-120
-118
-121
-118
-124
-127
-118
-119
-114
-103
-107
-101
-104
-101
-103
-95
-94
-91
-97
-94
-93
-86
-92
-84
-87
-82
-80
-80
-85
-68
-77
-79
-85
-86
-87
-80
-79
-80
-88
-91
-89
-99
-101
-108
-109
-112
-109
-118
-111
-95
-104
-123
-121
-110
-111
-110
-99
-108
-98
-100
-104
-123
-132
-135
-129
-130
-130
-130
-129
-123
-121
-123
-119
-123
-132
-129
-136
-134
-133
-124
-136
-142
-140
-140
-140
-142
-131
-135
-141
-146
-145
-144
-146
-151
-156
-150
-149
-146
-141
-145
-154
-156
-156
-154
-160
-147
-138
-149
-146
-153
-152
-138
-138
-143
-138
-135
-135
-122
-132
-131
-135
-131
-134
-142
-139
-133
-134
-139
-131
-126
-125
-128
-138
-129
-128
-132
-134
-133
-124
-116
-129
-132
-135
-133
-127
-127
-123
-114
-117
-125
-132
-132
-127
-127
-136
-139
-126
-120
-114
-114
-122
-125
-127
-127
-128
-118
-124
-130
-121
-116
-123
-126
-125
-120
-115
-108
-109
-112
-114
-113
-112
-108
-113
-115
-105
-88
-84
-82
-72
-71
-79
-97
-88
-82
-78
-71
-56
-48
-45
-35
-50
-49
-46
-42
-36
-30
-22
-10
2
-1
-15
-23
-28
-30
-41
-39
-41
-54
-55
-70
-91
-111
-108
-119
-128
-126
-128
-134
-130
-136
-144
-145
-149
-150
-148
-137
-148
-144
-149
-150
-149
-147
-142
-148
-147
-127
-141
-146
-129
-100
-95
-118
-142
-128
-76
1
77
168
334
469
553
683
832
941
1043
1113
1111
1021
900
721
507
310
133
-10
-39
-45
-75
-93
-114
-130
-143
-148
-146
-144
-144
-139
-134
-120
-113
-114
-117
-128
-128
-129
-123
-127
-134
-129
-121
-120
-127
-121
-121
-116
-103
-104
-114
-111
-100
-100
-98
-100
-104
-103
-114
-108
-110
-106
-108
-104
-108
-108
-99
-96
-99
-106
-99
-94
-97
-100
-97
-101
-99
-92
-100
-86
-91
-95
-94
-92
-88
-88
-83
-82
-90
-84
-71
-66
-64
-60
-60
-67
-61
-55
-52
-49
-46
-40
-30
-28
-37
-38
-34
-30
-35
-27
-11
-5
-2
10
11
9
19
20
1
21
34
36
41
56
62
60
65
76
87
93
100
108
108
121
124
129
139
136
134
137
146
152
155
150
148
149
151
150
142
137
143
138
136
126
118
115
106
99
83
89
76
57
43
35
21
12
7
-3
-9
-12
-20
-25
-26
-41
-49
-60
-62
-67
-68
-67
-66
-66
-79
-82
-84
-83
-80
-84
-87
-92
-84
-86
-79
-73
-72
-75
-66
-74
-87
-78
-79
-77
-72
-72
-81
-79
-80
-89
-100
-92
-94
-88
-95
-85
-99
-106
-98
-96
-105
-96
-96
-98
-94
-84
-92
-93
-96
-103
-104
-99
-96
-99
-96
-97
-101
-106
-103
-101
-96
-94
-103
-101
-100
-95
-102
-88
-88
-96
-92
-90
-93
-97
-99
-95
-97
-85
-85
-93
-90
-85
-89
-83
-83
-81
-77
-80
-80
-84
-84
-75
-74
-92
-86
-88
-85
-88
-95
-97
-90
-93
-93
-91
-91
-89
-87
-88
-89
-106
-102
-97
-96
-103
-99
-96
-103
-105
-91
-94
-93
-89
-88
-91
-94
-92
-99
-95
-99
-96
-101
-95
-102
-106
-99
-102
-114
-121
-118
-121
-119
-106
-111
-113
-108
-111
-113
-111
-108
-104
-99
-96
-108
-111
-110
-115
-122
-129
-123
-130
-129
-122
-119
-117
-108
-102
-111
-111
-107
-110
-115
-111
-104
-111
-109
-102
-101
-107
-99
-119
-116
-116
-120
-110
-116
-121
-121
-126
-122
-120
-122
-118
-118
-120
-115
-115
-117
-116
-116
-125
-127
-122
-115
-113
-105
-108
-116
-120
-114
-114
-123
-115
-105
-103
-95
-98
-102
-111
-108
-119
-120
-116
-120
-117
-119
-114
-116
-120
-114
-121
-116
-107
-104
-108
-106
-106
-108
-100
-96
-100
-109
-113
-106
-100
-90
-94
-98
-82
-73
-70
-60
-63
-67
-71
-64
-54
-60
-52
-52
-46
-28
-17
-27
-39
-29
-21
-18
-7
-8
-6
2
9
8
13
15
0
-36
-45
-39
-57
-66
-71
-80
-92
-99
-107
-116
-122
-126
-132
-133
-129
-134
-131
-133
-136
-144
-149
-149
-153
-154
-155
-153
-147
-151
-159
-161
-161
-160
-165
-160
-148
-129
-118
-116
-139
-132
-84
-13
61
162
336
476
570
716
874
975
1081
1165
1158
1059
930
748
523
332
153
7
-27
-52
-88
-106
-126
-140
-154
-161
-157
-157
-146
-150
-140
-129
-127
-128
-141
-141
-133
-132
-135
-129
-142
-144
-141
-128
-129
-128
-128
-133
-124
-121
-120
-122
-111
-113
-117
-112
-112
-110
-106
-113
-114
-112
-108
-114
-109
-100
-102
-110
-111
-111
-113
-107
-99
-103
-97
-93
-100
-96
-90
-101
-95
-90
-86
-80
-88
-92
-87
-83
-82
-81
-80
-76
-69
-67
-68
-64
-60
-59
-52
-51
-55
-51
-39
-39
-37
-31
-32
-43
-40
-27
-31
-30
-16
-24
-15
5
9
1
9
15
17
25
32
43
47
58
71
71
72
76
73
81
102
104
107
107
120
117
122
119
122
136
141
146
144
148
147
145
135
133
127
119
117
116
111
110
98
92
84
77
62
56
56
48
34
24
13
3
-4
-18
-32
-33
-31
-42
-53
-49
-62
-70
-78
-73
-77
-79
-80
-83
-81
-77
-83
-82
-80
-87
-91
-89
-87
-91
-85
-81
-91
-93
-82
-87
-85
-87
-81
-76
-87
-87
-90
-94
-91
-88
-106
-105
-96
-100
-96
-95
-98
-92
-98
-99
-96
-93
-107
-98
-96
-94
-98
-99
-97
-103
-109
-108
-98
-93
-92
-92
-95
-104
-102
-95
-98
-94
-89
-92
-94
-102
-104
-105
-103
-108
-102
-99
-84
-84
-87
-78
-76
-86
-95
-95
-94
-90
-86
-85
-85
-84
-88
-95
-105
-93
-96
-85
-96
-99
-97
-101
-99
-108
-108
-111
-114
-98
-98
-106
-110
-122
-117
-121
-115
-118
-117
-114
-113
-110
-122
-121
-120
-130
-116
-113
-133
-133
-131
-135
-128
-130
-131
-130
-143
-144
-138
-146
-146
-147
-147
-153
-148
-147
-138
-147
-158
-158
-154
-161
-153
-146
-153
-154
-158
-157
-160
-147
-147
-155
-155
-144
-140
-147
-155
-152
-150
-150
-146
-149
-151
-147
-138
-161
-154
-155
-156
-161
-154
-157
-156
-155
-156
-160
-155
-151
-152
-140
-136
-148
-150
-148
-149
-149
-146
-143
-165
-167
-153
-150
-154
-152
-150
-149
-150
-161
-170
-165
-150
-143
-142
-148
-142
-147
-150
-149
-137
-147
-147
-153
-144
-149
-160
-169
-162
-152
-154
-144
-152
-161
-153
-152
-159
-162
-149
-149
-141
-130
-147
-158
-151
-152
-138
-144
-143
-144
-155
-160
-153
-150
-150
-146
-149
-143
-143
-137
-143
-132
-130
-132
-136
-130
-132
-148
-142
-128
-100
-92
-85
-76
-62
-70
-74
-73
-60
-65
-59
-52
-43
-31
-24
-27
-27
-35
-49
-48
-55
-67
-80
-92
-99
-122
-142
-141
-146
-156
-166
-160
-149
-158
-156
-155
-164
-164
-177
-178
-175
-173
-173
-176
-171
-158
-153
-182
-184
-185
-196
-190
-182
-166
-149
-135
-141
-162
-155
-91
-16
56
149
317
453
569
724
889
1008
1101
1155
1142
1021
864
670
445
247
53
-72
-89
-103
-140
-172
-200
-210
-206
-202
-190
-172
-171
-170
-168
-144
-144
-135
-145
-155
-170
-162
-149
-141
-146
-144
-144
-139
-138
-142
-139
-140
-139
-146
-134
-140
-135
-130
-138
-128
-138
-133
-126
-142
-131
-124
-114
-113
-115
-116
-124
-134
-130
-129
-125
-116
-128
-121
-125
-121
-124
-120
-125
-121
-113
-101
-112
-109
-102
-112
-113
-112
-102
-100
-82
-90
-94
-75
-83
-87
-76
-61
-63
-68
-65
-54
-64
-53
-42
-44
-40
-34
-43
-33
-23
-23
-15
-1
-6
0
3
13
21
18
25
25
46
48
54
60
71
78
82
87
99
103
116
109
130
128
128
157
146
129
127
131
132
130
150
132
133
134
135
130
124
122
115
110
97
89
80
73
61
54
54
34
24
15
-1
-13
-24
-23
-20
-42
-37
-43
-43
-45
-55
-59
-61
-65
-81
-80
-89
-84
-81
-89
-101
-98
-96
-91
-120
-119
-110
-94
-110
-104
-106
-112
-105
-94
-118
-122
-111
-117
-122
-127
-129
-138
-124
-115
-115
-120
-117
-124
-120
-103
-118
-133
-136
-135
-126
-134
-135
-123
-126
-134
-142
-141
-152
-132
-136
-146
-142
-137
-133
-130
-119
-121
-117
-114
-125
-136
-121
-128
-134
-134
-139
-122
-123
-126
-125
-140
-135
-135
-136
-131
-127
-121
-127
-134
-133
-128
-132
-120
-124
-123
-127
-123
-132
-133
-126
-132
-135
-127
-122
-134
-113
-113
-107
-123
-145
-132
-134
-132
-133
-123
-140
-149
-142
-142
-133
-142
-148
-143
-153
-150
-143
-151
-154
-153
-172
-162
-164
-166
-158
-163
-159
-164
-168
-166
-161
-179
-172
-162
-165
-170
-159
-169
-161
-163
-178
-170
-169
-170
-172
-160
-161
-170
-171
-176
-172
-175
-174
-165
-160
-164
-168
-183
-161
-166
-167
-172
-168
-174
-166
-160
-155
-163
-166
-158
-162
-155
-156
-155
-161
-158
-153
-163
-154
-153
-167
-153
-154
-148
-147
-166
-169
-165
-171
-173
-175
-178
-163
-168
-171
-178
-170
-171
-178
-172
-168
-178
-172
-169
-158
-161
-154
-149
-146
-171
-165
-159
-172
-167
-158
-165
-167
-153
-147
-163
-165
-159
-174
-163
-161
-154
-153
-138
-144
-133
-129
-132
-136
-139
-140
-131
-123
-131
-101
-94
-88
-105
-101
-92
-88
-74
-73
-71
-55
-49
-45
-58
-54
-43
-51
-57
-61
-75
-73
-73
-92
-119
-135
-139
-145
-159
-164
-168
-173
-170
-177
-190
-186
-189
-183
-178
-187
-180
-179
-171
-172
-184
-196
-185
-185
-184
-169
-180
-178
-173
-174
-148
-131
-145
-166
-147
-86
-25
51
143
310
415
518
675
819
915
1010
1053
1023
922
764
567
360
165
-18
-128
-132
-158
-171
-201
-229
-238
-221
-207
-201
-194
-195
-188
-182
-169
-164
-157
-153
-154
-162
-156
-150
-147
-153
-155
-165
-163
-168
-170
-162
-156
-160
-160
-158
-165
-163
-150
-155
-159
-147
-149
-160
-170
-170
-156
-156
-157
-162
-156
-159
-149
-137
-138
-145
-149
-151
-145
-134
-140
-136
-130
-137
-143
-145
-142
-145
-154
-144
-137
-137
-127
-116
-130
-131
-131
-124
-122
-106
-99
-105
-106
-110
-101
-97
-90
-115
-101
-94
-96
-85
-83
-82
-83
-69
-72
-69
-55
-47
-38
-23
-9
-7
-13
-6
0
-2
1
12
23
32
31
37
40
39
49
54
60
63
62
70
65
63
63
55
61
62
62
65
72
69
66
68
56
51
46
38
33
25
8
6
-3
-19
-23
-21
-50
-73
-83
-81
-88
-100
-107
-105
-116
-126
-129
-132
-130
-137
-145
-154
-155
-144
-155
-151
-154
-153
-162
-159
-161
-175
-176
-168
-165
-170
-178
-181
-183
-181
-174
-175
-176
-178
-188
-187
-181
-183
-178
-168
-176
-170
-165
-163
-170
-169
-171
-173
-166
-168
-163
-159
-162
-164
-166
-163
-156
-168
-170
-176
-165
-157
-159
-169
-174
-179
-173
-178
-172
-161
-165
-181
-176
-165
-167
-171
-177
-186
-191
-180
-175
-177
-174
-172
-174
-164
-168
-177
-172
-164
-159
-160
-155
-156
-167
-166
-159
-170
-181
-182
-182
-181
-177
-171
-168
-168
-169
-172
-176
-170
-169
-164
-164
-162
-168
-161
-180
-182
-177
-176
-173
-175
-171
-179
-194
-190
-182
-181
-189
-189
-184
-186
-185
-185
-188
-187
-191
-198
-200
-191
-192
-195
-186
-187
-198
-193
-194
-192
-201
-197
-195
-195
-196
-191
-194
-199
-201
-202
-202
-197
-191
-197
-189
-187
-199
-204
-205
-203
-198
-185
-188
-198
-192
-179
-186
-185
-177
-176
-191
-190
-192
-191
-190
-184
-188
-188
-194
-196
-195
-188
-178
-191
-182
-184
-185
-189
-197
-195
-190
-175
-183
-201
-199
-191
-197
-191
-194
-202
-197
-203
-204
-208
-202
-205
-206
-207
-205
-209
-207
-200
-201
-204
-197
-195
-196
-199
-204
-205
-209
-205
-208
-208
-207
-210
-215
-213
-204
-211
-206
-200
-201
-193
-192
-193
-200
-202
-211
-206
-193
-184
-175
-174
-167
-174
-176
-169
-167
-170
-179
-173
-165
-149
-141
-140
-139
-138
-148
-157
-149
-128
-120
-112
-96
-83
-73
-73
-82
-96
-94
-100
-117
-121
-119
-129
-138
-155
-173
-187
-200
-199
-210
-221
-226
-230
-232
-230
-228
-232
-242
-233
-232
-244
-245
-249
-253
-258
-256
-251
-257
-246
-243
-239
-238
-245
-245
-223
-213
-220
-242
-221
-173
-97
-12
95
259
372
469
612
767
868
966
1032
1017
922
778
600
383
191
20
-117
-131
-144
-166
-182
-212
-221
-223
-225
-234
-224
-223
-218
-205
-195
-200
-203
-208
-210
-216
-223
-219
-204
-202
-211
-213
-215
-211
-213
-213
-207
-212
-210
-208
-203
-206
-208
-209
-207
-204
-197
-197
-193
-185
-182
-195
-196
-190
-193
-194
-183
-185
-191
-179
-179
-187
-183
-186
-184
-189
-190
-187
-189
-182
-171
-163
-155
-152
-158
-164
-160
-161
-156
-143
-148
-153
-155
-153
-153
-151
-144
-149
-142
-129
-124
-129
-126
-118
-116
-114
-114
-115
-86
-93
-97
-90
-84
-80
-74
-80
-76
-68
-69
-57
-46
-49
-44
-39
-38
-31
-19
-6
-4
5
7
14
24
31
39
37
47
50
49
50
49
46
52
54
55
58
64
63
54
57
44
41
25
16
14
11
5
0
-5
-17
-33
-50
-54
-67
-88
-96
-106
-120
-121
-127
-135
-133
-137
-152
-156
-168
-167
-169
-179
-186
-186
-189
-191
-188
-200
-201
-203
-200
-202
-197
-201
-203
-206
-203
-206
-200
-203
-209
-204
-201
-203
-208
-225
-224
-217
-213
-217
-220
-215
-213
-213
-218
-222
-218
-222
-221
-230
-221
-238
-230
-224
-235
-230
-235
-240
-244
-231
-232
-222
-218
-225
-227
-219
-230
-231
-238
-227
-229
-243
-238
-241
-244
-249
-250
-250
-249
-244
-236
-236
-239
-243
-245
-243
-246
-251
-253
-244
-241
-234
-235
-229
-239
-241
-240
-247
-254
-240
-238
-236
-236
-241
-243
-239
-241
-247
-246
-244
-237
-227
-234
-237
-245
-251
-246
-256
-249
-241
-245
-233
-220
-228
-229
-232
-224
-228
-229
-230
-230
-231
-231
-226
-231
-242
-242
-244
-242
-236
-238
-243
-232
-234
-231
-235
-239
-241
-245
-237
-238
-242
-240
-241
-250
-250
-257
-261
-256
-253
-253
-247
-236
-240
-249
-248
-243
-248
-249
-243
-238
-238
-237
-231
-231
-231
-234
-241
-232
-235
-244
-239
-240
-244
-246
-244
-242
-250
-252
-247
-251
-256
-251
-249
-244
-239
-255
-254
-253
-241
-244
-250
-255
-260
-260
-265
-258
-257
-257
-253
-254
-248
-246
-248
-252
-238
-254
-260
-257
-257
-258
-259
-258
-262
-259
-261
-267
-272
-269
-259
-263
-266
-259
-264
-265
-260
-257
-270
-259
-252
-261
-260
-258
-266
-268
-272
-275
-277
-284
-277
-271
-266
-261
-258
-258
-252
-251
-253
-257
-251
-244
-245
-232
-223
-221
-221
-226
-236
-233
-234
-233
-232
-218
-207
-195
-177
-164
-162
-162
-159
-159
-168
-155
-153
-147
-140
-134
-134
-134
-133
-136
-141
-158
-169
-175
-183
-193
-215
-218
-232
-230
-240
-254
-264
-281
-279
-286
-289
-286
-272
-273
-278
-284
-281
-281
-284
-285
-285
-286
-286
-290
-286
-285
-285
-284
-287
-279
-278
-255
-240
-248
-271
-248
-193
-119
-28
54
219
353
465
626
787
889
977
1040
1031
927
770
585
362
168
-16
-148
-161
-194
-219
-236
-267
-282
-287
-283
-288
-285
-284
-280
-269
-257
-261
-261
-253
-255
-264
-281
-283
-281
-272
-273
-276
-273
-274
-277
-269
-262
-269
-280
-269
-268
-266
-267
-263
-263
-256
-253
-247
-245
-241
-242
-251
-244
-234
-252
-256
-251
-252
-252
-239
-245
-256
-252
-249
-253
-254
-253
-253
-251
-251
-245
-249
-250
-249
-252
-250
-241
-239
-237
-230
-227
-222
-219
-223
-212
-207
-203
-203
-205
-203
-203
-200
-194
-179
-176
-174
-169
-163
-156
-161
-159
-154
-142
-128
-127
-130
-127
-122
-114
-106
-104
-92
-74
-72
-73
-52
-48
-44
-47
-36
-37
-29
-14
-11
-9
-4
2
-1
-6
-11
2
0
-4
1
2
13
11
8
2
-5
-13
-23
-28
-31
-38
-48
-58
-73
-85
-94
-104
-112
-115
-121
-128
-131
-144
-156
-172
-173
-180
-184
-197
-206
-216
-212
-211
-224
-228
-232
-241
-248
-238
-237
-234
-231
-236
-244
-251
-251
-249
-251
-244
-239
-240
-242
-239
-248
-250
-244
-251
-251
-250
-254
-252
-256
-257
-264
-258
-254
-260
-276
-271
-270
-265
-260
-264
-257
-259
-261
-257
-260
-257
-253
-257
-258
-251
-258
-266
-265
-270
-274
-271
-269
-262
-253
-254
-261
-259
-261
-255
-261
-265
-252
-265
-267
-260
-265
-270
-276
-257
-265
-272
-266
-250
-255
-248
-256
-272
-278
-265
-269
-274
-257
-257
-264
-253
-260
-264
-265
-273
-266
-267
-257
-272
-264
-259
-270
-258
-255
-268
-276
-271
-252
-260
-249
-250
-251
-268
-269
-272
-270
-262
-258
-264
-260
-246
-266
-286
-266
-258
-276
-269
-255
-241
-247
-242
-257
-267
-271
-267
-265
-260
-255
-255
-262
-274
-274
-278
-286
-281
-279
-265
-272
-272
-273
-268
-275
-278
-268
-277
-279
-290
-286
-285
-280
-280
-289
-289
-285
-280
-292
-291
-288
-291
-283
-283
-287
-297
-286
-288
-295
-290
-292
-292
-282
-273
-287
-286
-287
-288
-285
-292
-288
-289
-289
-284
-274
-271
-266
-286
-289
-294
-290
-280
-280
-278
-290
-285
-287
-277
-278
-274
-276
-269
-267
-266
-273
-275
-280
-277
-277
-280
-279
-269
-270
-269
-266
-269
-282
-275
-267
-272
-277
-266
-263
-258
-268
-278
-268
-273
-268
-251
-245
-260
-265
-256
-262
-267
-272
-267
-271
-262
-267
-265
-259
-253
-276
-281
-274
-278
-274
-270
-269
-267
-261
-258
-263
-279
-278
-278
-279
-275
-257
-236
-226
-203
-209
-199
-204
-212
-217
-205
-200
-190
-178
-166
-169
-176
-184
-179
-174
-182
-176
-181
-198
-213
-216
-224
-243
-255
-257
-270
-265
-281
-289
-284
-284
-290
-295
-282
-297
-299
-304
-304
-295
-303
-302
-306
-311
-303
-300
-299
-288
-296
-294
-293
-292
-267
-263
-257
-287
-293
-239
-166
-97
-9
128
292
400
553
744
875
978
1048
1038
943
765
572
329
131
-65
-214
-246
-262
-286
-310
-334
-349
-360
-363
-331
-327
-317
-307
-306
-280
-278
-274
-279
-275
-284
-285
-280
-276
-276
-261
-271
-276
-277
-272
-271
-276
-270
-265
-277
-276
-274
-267
-264
-258
-277
-283
-276
-263
-258
-253
-267
-259
-248
-261
-271
-259
-255
-252
-251
-251
-240
-239
-244
-237
-243
-245
-239
-233
-228
-229
-238
-237
-236
-238
-239
-237
-237
-236
-241
-229
-227
-230
-228
-225
-228
-222
-201
-206
-199
-208
-220
-203
-202
-191
-184
-187
-183
-185
-166
-165
-161
-161
-151
-147
-140
-131
-123
-114
-104
-100
-105
-89
-94
-94
-83
-79
-70
-53
-51
-43
-39
-29
-28
-15
-19
-12
-1
-1
-6
-11
-8
-4
-6
-8
-8
3
7
-5
-19
-26
-35
-38
-52
-58
-64
-60
-58
-75
-81
-100
-119
-129
-139
-160
-173
-165
-170
-188
-189
-195
-206
-207
-209
-213
-222
-231
-233
-235
-232
-236
-240
-244
-245
-235
-234
-250
-255
-262
-270
-255
-267
-256
-258
-251
-253
-257
-257
-240
-246
-257
-252
-250
-249
-252
-255
-260
-257
-252
-261
-271
-257
-264
-260
-264
-266
-264
-257
-259
-249
-251
-253
-262
-266
-267
-254
-259
-259
-255
-257
-248
-245
-265
-270
-255
-264
-253
-236
-241
-246
-244
-247
-243
-250
-248
-251
-241
-253
-257
-251
-264
-254
-259
-246
-242
-240
-242
-240
-243
-242
-236
-247
-245
-251
-253
-252
-260
-256
-239
-243
-240
-256
-258
-256
-261
-248
-224
-217
-238
-232
-245
-258
-252
-272
-270
-273
-269
-251
-252
-253
-253
-254
-257
-259
-266
-270
-243
-257
-254
-245
-254
-248
-256
-264
-255
-248
-243
-247
-242
-263
-255
-253
-256
-256
-254
-242
-236
-243
-269
-272
-256
-257
-273
-271
-265
-260
-262
-265
-269
-260
-266
-263
-257
-264
-263
-273
-281
-272
-272
-271
-267
-274
-274
-282
-268
-273
-272
-269
-263
-262
-264
-265
-282
-280
-273
-277
-285
-262
-272
-279
-271
-268
-257
-243
-266
-279
-276
-256
-270
-286
-278
-276
-284
-287
-286
-277
-278
-281
-277
-272
-274
-276
-275
-264
-257
-262
-260
-266
-273
-268
-265
-275
-265
-256
-264
-270
-246
-247
-252
-251
-231
-251
-257
-257
-267
-267
-251
-259
-251
-248
-237
-244
-247
-229
-233
-259
-247
-252
-252
-237
-225
-222
-201
-206
-213
-209
-215
-222
-203
-195
-174
-160
-158
-147
-147
-154
-148
-145
-147
-152
-161
-171
-180
-194
-198
-204
-221
-239
-247
-262
-259
-259
-264
-282
-281
-268
-268
-267
-262
-266
-267
-253
-279
-273
-270
-282
-262
-255
-267
-271
-266
-271
-277
-275
-270
-249
-216
-232
-250
-232
-168
-112
-33
82
237
345
449
613
745
846
922
955
906
789
615
429
231
35
-146
-222
-218
-237
-251
-296
-334
-338
-352
-330
-298
-288
-284
-282
-262
-250
-240
-243
-258
-261
-254
-248
-251
-249
-241
-235
-242
-257
-243
-238
-241
-235
-218
-223
-235
-225
-211
-230
-219
-233
-220
-211
-220
-222
-230
-226
-244
-246
-230
-237
-231
-242
-234
-233
-233
-230
-224
-229
-217
-227
-217
-235
-218
-217
-219
-223
-218
-232
-206
-213
-211
-206
-202
-197
-208
-199
-191
-178
-177
-189
-188
-180
-179
-180
-178
-182
-168
-179
-175
-167
-149
-155
-144
-151
-144
-127
-141
-135
-112
-121
-119
-117
-117
-97
-100
-98
-82
-86
-71
-61
-67
-57
-49
-53
-52
-41
-36
-28
-30
-33
-36
-36
-28
-33
-37
-33
-28
-30
-26
-30
-36
-37
-29
-31
-36
-40
-54
-53
-56
-64
-68
-84
-85
-135
-160
-157
-186
-192
-195
-210
-213
-218
-226
-235
-247
-247
-259
-255
-251
-258
-267
-277
-277
-270
-294
-290
-295
-314
-310
-319
-313
-314
-321
-334
-332
-327
-336
-333
-322
-322
-323
-338
-332
-331
-343
-334
-339
-352
-348
-358
-362
-351
-341
-352
-347
-346
-351
-346
-336
-348
-347
-341
-339
-344
-347
-346
-341
-348
-337
-339
-340
-345
-339
-349
-344
-333
-330
-336
-336
-340
-342
-335
-334
-336
-338
-333
-336
-338
-340
-345
-347
-346
-340
-347
-336
-352
-347
-342
-339
-338
-333
-336
-346
-337
-334
-343
-341
-349
-340
-347
-343
-336
-336
-335
-342
-351
-356
-349
-338
-336
-357
-359
-355
-353
-361
-361
-359
-360
-354
-351
-350
-343
-348
-347
-347
-346
-356
-363
-357
-358
-367
-358
-355
-369
-364
-367
-360
-376
-369
-366
-371
-371
-372
-374
-380
-380
-375
-385
-381
-383
-380
-372
-368
-372
-375
-370
-376
-381
-376
-368
-345
-349
-357
-348
-359
-355
-365
-372
-367
-367
-363
-357
-360
-364
-362
-357
-363
-377
-376
-376
-370
-368
-368
-373
-369
-369
-377
-383
-375
-374
-369
-335
-305
-300
-304
-297
-279
-279
-274
-263
-261
-267
-258
-262
-263
-263
-267
-263
-259
-261
-261
-269
-259
-264
-267
-263
-267
-269
-263
-254
-261
-255
-252
-254
-234
-223
-238
-227
-219
-224
-224
-215
-215
-215
-218
-224
-234
-233
-229
-217
-210
-199
-188
-205
-208
-210
-213
-218
-204
-206
-194
-186
-176
-176
-178
-179
-168
-150
-151
-142
-133
-121
-112
-119
-116
-117
-131
-135
-136
-149
-149
-150
-158
-166
-188
-200
-215
-217
-220
-238
-235
-229
-230
-241
-233
-231
-243
-260
-251
-263
-263
-253
-253
-252
-250
-249
-251
-245
-239
-244
-244
-237
-229
-230
-214
-198
-203
-230
-213
-168
-102
-25
66
221
342
431
557
716
813
895
949
941
850
708
542
332
140
-28
-149
-172
-190
-215
-230
-249
-267
-268
-269
-260
-260
-252
-245
-234
-209
-218
-222
-224
-232
-244
-230
-218
-219
-228
-218
-223
-224
-228
-230
-224
-219
-221
-219
-225
-218
-224
-220
-223
-219
-208
-205
-204
-202
-204
-203
-203
-212
-216
-220
-215
-206
-206
-197
-195
-191
-200
-191
-182
-188
-182
-170
-166
-171
-167
-157
-164
-166
-175
-169
-169
-164
-160
-156
-153
-154
-160
-166
-158
-153
-148
-148
-145
-141
-139
-125
-141
-139
-131
-126
-132
-125
-122
-121
-115
-108
-110
-108
-96
-86
-83
-73
-60
-53
-49
-49
-46
-38
-32
-26
-23
-14
0
12
14
20
26
24
36
37
33
47
48
41
37
41
42
43
42
39
43
43
48
45
43
38
36
19
14
-2
-6
-21
-35
-38
-44
-52
-70
-77
-90
-106
-117
-115
-122
-129
-132
-140
-150
-155
-162
-165
-169
-169
-173
-181
-183
-185
-189
-202
-203
-202
-203
-214
-207
-203
-204
-204
-208
-202
-207
-210
-203
-205
-203
-204
-203
-206
-212
-216
-217
-213
-211
-205
-205
-205
-200
-202
-204
-205
-207
-216
-221
-210
-214
-210
-211
-210
-210
-218
-215
-210
-216
-210
-204
-200
-200
-203
-203
-196
-192
-193
-193
-192
-196
-188
-189
-202
-204
-201
-202
-200
-196
-198
-198
-194
-189
-182
-182
-179
-177
-182
-189
-181
-183
-186
-183
-183
-183
-188
-182
-182
-197
-191
-193
-186
-187
-184
-189
-189
-191
-188
-196
-189
-182
-185
-185
-190
-199
-202
-197
-199
-205
-201
-202
-200
-200
-198
-205
-203
-203
-216
-216
-208
-211
-222
-213
-215
-217
-215
-214
-217
-215
-212
-217
-214
-210
-210
-212
-216
-218
-217
-214
-210
-218
-218
-207
-202
-203
-205
-216
-224
-230
-225
-225
-235
-227
-221
-221
-234
-237
-238
-241
-236
-230
-236
-226
-231
-234
-232
-231
-237
-232
-229
-227
-224
-230
-226
-227
-226
-220
-226
-230
-225
-218
-222
-216
-222
-223
-232
-239
-231
-231
-229
-231
-231
-231
-230
-231
-231
-225
-228
-229
-221
-230
-231
-221
-219
-222
-223
-225
-237
-236
-226
-224
-225
-218
-224
-237
-236
-226
-228
-222
-211
-208
-216
-208
-212
-223
-228
-217
-223
-224
-213
-209
-209
-203
-205
-204
-204
-203
-208
-204
-198
-193
-201
-194
-179
-196
-205
-208
-212
-207
-197
-181
-180
-181
-176
-176
-181
-188
-201
-196
-181
-172
-164
-144
-136
-129
-129
-130
-142
-143
-136
-124
-118
-113
-108
-105
-101
-101
-110
-116
-116
-133
-135
-133
-145
-154
-167
-177
-196
-210
-224
-236
-247
-246
-243
-247
-256
-260
-264
-267
-274
-275
-265
-265
-269
-271
-268
-265
-258
-265
-253
-254
-261
-258
-258
-262
-255
-234
-227
-240
-256
-243
-202
-130
-51
41
203
354
437
579
759
873
971
1041
1050
950
812
630
413
218
41
-106
-159
-171
-197
-215
-242
-255
-260
-269
-259
-265
-260
-245
-237
-233
-230
-228
-234
-231
-220
-221
-220
-211
-214
-220
-222
-214
-221
-222
-211
-213
-209
-203
-207
-213
-218
-215
-223
-220
-211
-208
-201
-194
-195
-205
-213
-204
-211
-202
-198
-204
-202
-203
-197
-203
-202
-200
-203
-201
-198
-198
-204
-201
-194
-200
-195
-184
-189
-197
-194
-192
-184
-180
-180
-183
-186
-183
-185
-179
-175
-172
-170
-169
-162
-170
-168
-169
-165
-159
-147
-150
-138
-129
-126
-121
-114
-120
-121
-116
-104
-92
-85
-75
-66
-64
-59
-51
-54
-47
-33
-30
-21
-7
-1
7
18
27
28
37
50
54
57
70
64
63
69
62
66
62
68
72
70
60
55
62
62
54
45
29
29
27
18
3
-5
-29
-37
-43
-53
-56
-59
-73
-86
-88
-104
-121
-128
-133
-144
-144
-134
-149
-155
-153
-155
-160
-162
-160
-161
-169
-168
-170
-169
-167
-167
-163
-172
-179
-182
-178
-187
-190
-189
-189
-191
-197
-199
-201
-201
-193
-179
-175
-188
-185
-190
-194
-190
-191
-193
-199
-200
-198
-200
-196
-197
-197
-198
-198
-206
-197
-194
-199
-201
-194
-197
-198
-192
-200
-203
-199
-195
-195
-198
-197
-192
-197
-196
-189
-190
-186
-185
-189
-183
-182
-184
-190
-184
-180
-188
-198
-198
-191
-195
-189
-192
-195
-195
-197
-197
-189
-183
-183
-184
-186
-187
-196
-201
-202
-204
-207
-215
-214
-210
-208
-210
-217
-219
-216
-226
-225
-218
-221
-218
-212
-210
-200
-205
-230
-224
-229
-210
-215
-225
-227
-222
-231
-231
-235
-241
-241
-236
-231
-226
-235
-231
-231
-239
-240
-242
-233
-230
-224
-230
-223
-221
-224
-220
-216
-225
-214
-210
-221
-223
-223
-227
-226
-231
-240
-242
-244
-236
-230
-240
-238
-231
-237
-229
-230
-227
-231
-223
-218
-228
-226
-218
-228
-229
-229
-234
-221
-220
-225
-222
-238
-230
-228
-235
-239
-243
-237
-227
-233
-227
-226
-220
-227
-238
-238
-235
-230
-218
-219
-236
-229
-230
-231
-231
-220
-224
-230
-220
-219
-223
-223
-226
-231
-226
-231
-229
-232
-217
-213
-218
-221
-223
-228
-217
-212
-209
-215
-213
-208
-205
-200
-209
-210
-199
-191
-200
-202
-198
-201
-198
-191
-186
-191
-190
-187
-169
-168
-175
-169
-164
-165
-176
-177
-175
-167
-159
-136
-127
-113
-111
-110
-111
-126
-115
-104
-99
-79
-70
-63
-74
-69
-73
-71
-89
-97
-105
-112
-118
-123
-124
-159
-169
-178
-184
-193
-197
-203
-210
-202
-198
-205
-207
-210
-199
-207
-222
-224
-224
-224
-227
-231
-231
-231
-229
-236
-238
-231
-221
-227
-215
-192
-189
-198
-228
-204
-147
-82
7
123
306
423
541
716
877
986
1086
1133
1088
966
780
588
363
158
-45
-150
-163
-197
-199
-233
-257
-254
-249
-246
-223
-229
-228
-211
-204
-194
-190
-190
-200
-205
-195
-202
-206
-196
-192
-193
-189
-189
-192
-196
-193
-192
-196
-179
-176
-196
-192
-184
-174
-190
-186
-167
-168
-154
-157
-155
-161
-167
-173
-169
-165
-171
-170
-175
-170
-170
-171
-156
-168
-179
-176
-171
-163
-164
-160
-153
-156
-162
-156
-153
-154
-139
-143
-147
-145
-143
-132
-126
-122
-127
-111
-109
-118
-115
-112
-118
-110
-96
-91
-83
-78
-72
-67
-80
-61
-54
-57
-50
-50
-56
-53
-49
-43
-32
-20
-22
-11
4
10
16
5
14
31
36
46
49
57
64
69
69
74
70
58
62
79
77
80
86
69
78
71
80
75
76
71
69
63
60
53
32
25
18
-1
-13
-15
-22
-31
-52
-65
-86
-97
-104
-107
-102
-119
-125
-138
-143
-141
-159
-156
-163
-166
-157
-151
-165
-165
-181
-173
-172
-170
-181
-193
-188
-188
-186
-187
-191
-186
-191
-188
-186
-193
-190
-202
-191
-192
-182
-187
-203
-192
-185
-192
-210
-202
-201
-201
-194
-194
-195
-193
-201
-193
-193
-191
-199
-199
-190
-198
-203
-201
-199
-200
-190
-191
-197
-202
-190
-201
-190
-186
-199
-202
-185
-182
-184
-181
-175
-178
-182
-177
-184
-171
-184
-178
-184
-171
-187
-198
-188
-181
-184
-190
-189
-184
-176
-170
-166
-164
-179
-176
-189
-186
-173
-176
-177
-183
-178
-177
-180
-190
-188
-190
-189
-184
-189
-184
-166
-177
-192
-191
-169
-190
-198
-212
-203
-199
-193
-202
-203
-198
-188
-196
-202
-207
-193
-203
-210
-207
-205
-206
-206
-202
-202
-201
-201
-207
-206
-211
-210
-210
-205
-208
-214
-215
-209
-220
-207
-203
-212
-208
-214
-209
-205
-214
-215
-215
-226
-215
-215
-220
-234
-225
-228
-223
-216
-231
-226
-216
-210
-209
-212
-208
-207
-212
-205
-217
-206
-202
-198
-208
-213
-213
-214
-217
-203
-200
-211
-208
-215
-222
-211
-227
-223
-211
-225
-211
-204
-208
-219
-212
-199
-187
-190
-200
-201
-208
-199
-196
-198
-186
-201
-205
-183
-178
-195
-187
-187
-203
-195
-195
-178
-178
-167
-169
-173
-161
-177
-173
-186
-169
-156
-171
-164
-145
-138
-137
-123
-121
-137
-129
-118
-117
-102
-92
-92
-87
-82
-95
-78
-89
-110
-114
-109
-106
-122
-142
-143
-178
-190
-194
-197
-207
-202
-198
-200
-202
-191
-189
-207
-210
-215
-205
-212
-207
-214
-206
-213
-208
-203
-203
-213
-220
-204
-202
-208
-175
-163
-173
-181
-174
-137
-83
-16
63
206
355
463
597
771
892
968
1026
1024
942
805
620
396
194
15
-138
-172
-190
-225
-211
-233
-259
-252
-249
-227
-208
-207
-200
-195
-181
-174
-162
-164
-172
-187
-164
-169
-158
-151
-158
-162
-150
-142
-132
-146
-163
-170
-159
-152
-149
-144
-140
-135
-131
-128
-120
-125
-140
-139
-145
-129
-123
-134
-125
-130
-124
-124
-129
-124
-112
-114
-108
-110
-111
-109
-95
-111
-111
-103
-100
-93
-84
-75
-79
-69
-69
-82
-86
-75
-68
-81
-67
-64
-63
-52
-66
-61
-61
-60
-52
-58
-45
-36
-36
-41
-30
-22
-20
-11
2
-11
-8
-3
12
-7
3
19
21
35
49
54
64
66
75
66
79
81
85
104
107
110
101
112
106
119
115
124
120
125
130
139
133
130
129
127
129
119
110
118
114
106
113
104
86
63
51
45
33
26
12
9
1
-3
0
-25
-25
-46
-59
-53
-57
-66
-82
-68
-79
-83
-91
-100
-100
-100
-98
-113
-111
-96
-104
-116
-105
-105
-116
-131
-117
-118
-119
-122
-119
-134
-124
-121
-128
-123
-124
-132
-125
-121
-125
-131
-133
-127
-134
-125
-127
-123
-124
-128
-128
-121
-121
-114
-128
-128
-119
-116
-118
-113
-123
-121
-122
-127
-124
-125
-128
-127
-115
-122
-127
-122
-121
-120
-115
-112
-122
-111
-108
-109
-117
-108
-115
-124
-121
-111
-117
-110
-109
-98
-92
-98
-101
-110
-133
-122
-110
-112
-106
-111
-108
-112
-113
-115
-115
-111
-107
-105
-110
-95
-121
-129
-119
-121
-125
-120
-124
-123
-122
-135
-133
-133
-141
-150
-150
-142
-145
-139
-136
-154
-149
-141
-128
-141
-147
-139
-139
-136
-142
-141
-142
-146
-129
-153
-162
-143
-141
-145
-139
-141
-153
-153
-148
-142
-146
-145
-141
-134
-137
-138
-139
-130
-119
-140
-133
-140
-144
-147
-142
-135
-138
-142
-133
-139
-143
-137
-145
-139
-136
-140
-143
-139
-147
-148
-153
-145
-142
-156
-149
-151
-150
-145
-140
-141
-146
-132
-117
-139
-137
-129
-137
-146
-143
-146
-136
-124
-143
-144
-138
-136
-130
-137
-129
-131
-128
-127
-115
-117
-117
-121
-125
-139
-136
-131
-129
-109
-102
-115
-112
-110
-109
-118
-126
-120
-113
-112
-108
-109
-92
-78
-86
-102
-96
-99
-74
-72
-64
-56
-42
-32
-27
-43
-53
-47
-55
-48
-51
-60
-59
-64
-80
-90
-110
-127
-124
-128
-128
-125
-133
-139
-142
-138
-131
-138
-144
-141
-142
-128
-128
-131
-134
-134
-134
-143
-137
-141
-145
-145
-145
-145
-118
-108
-113
-132
-118
-63
-9
60
152
303
441
522
655
794
899
1008
1064
1051
961
821
639
435
241
68
-71
-86
-99
-119
-134
-157
-175
-180
-191
-170
-171
-167
-159
-149
-134
-123
-124
-126
-130
-140
-144
-131
-128
-126
-122
-120
-123
-121
-114
-124
-115
-109
-102
-119
-115
-105
-109
-114
-109
-116
-122
-114
-107
-108
-114
-110
-114
-113
-93
-104
-95
-99
-99
-92
-93
-90
-104
-100
-97
-103
-114
-110
-101
-98
-92
-90
-86
-92
-91
-80
-100
-82
-79
-81
-76
-74
-81
-87
-85
-81
-80
-70
-60
-54
-55
-42
-43
-55
-56
-45
-48
-41
-35
-39
-39
-34
-26
-30
-26
-21
-8
-1
2
5
16
22
18
23
37
40
35
54
56
51
61
70
68
83
93
91
92
102
112
108
119
120
113
108
106
111
106
110
115
100
102
93
85
83
83
70
62
68
55
39
35
-3
-9
-16
-22
-23
-36
-39
-48
-63
-77
-77
-81
-80
-76
-81
-90
-85
-86
-93
-95
-96
-102
-109
-106
-104
-103
-115
-116
-114
-109
-102
-109
-113
-109
-111
-108
-112
-113
-124
-110
-104
-109
-116
-115
-117
-120
-109
-114
-110
-107
-108
-114
-121
-117
-115
-113
-114
-110
-103
-116
-122
-122
-123
-123
-126
-136
-126
-124
-127
-111
-113
-116
-127
-122
-129
-135
-134
-124
-121
-119
-124
-127
-120
-121
-121
-109
-109
-98
-107
-102
-101
-97
-98
-102
-102
-103
-98
-95
-106
-110
-114
-115
-115
-117
-119
-111
-108
-114
-113
-108
-103
-109
-116
-121
-115
-120
-116
-112
-113
-117
-115
-124
-122
-116
-128
-129
-119
-122
-128
-117
-112
-120
-130
-125
-130
-139
-134
-132
-115
-114
-117
-130
-132
-140
-134
-130
-130
-122
-122
-122
-126
-131
-129
-134
-139
-140
-140
-145
-141
-147
-138
-141
-148
-148
-158
-154
-148
-139
-141
-141
-142
-140
-140
-148
-149
-146
-127
-128
-126
-126
-126
-134
-134
-132
-137
-143
-135
-130
-132
-139
-136
-145
-151
-150
-155
-151
-140
-145
-149
-143
-133
-130
-129
-127
-132
-151
-143
-136
-138
-142
-141
-150
-155
-154
-145
-149
-139
-142
-140
-136
-143
-150
-153
-152
-156
-151
-149
-153
-157
-156
-151
-156
-155
-155
-154
-149
-150
-147
-149
-144
-145
-146
-157
-156
-155
-151
-152
-154
-149
-146
-149
-153
-159
-149
-135
-140
-140
-146
-159
-143
-142
-145
-137
-128
-128
-118
-114
-114
-115
-115
-121
-129
-127
-110
-102
-86
-73
-57
-53
-57
-58
-59
-52
-40
-22
-25
-25
-8
0
-3
-7
-16
-16
-30
-44
-53
-47
-46
-58
-79
-87
-95
-108
-109
-109
-122
-125
-136
-133
-128
-129
-129
-136
-138
-135
-142
-134
-135
-135
-129
-126
-132
-138
-139
-143
-138
-137
-127
-114
-96
-85
-115
-136
-100
-48
17
103
217
391
498
605
758
891
983
1082
1140
1113
1004
849
654
439
239
69
-40
-41
-68
-91
-97
-122
-136
-145
-147
-142
-140
-140
-141
-135
-120
-115
-117
-125
-132
-132
-131
-128
-123
-122
-121
-124
-121
-111
-115
-114
-107
-108
-114
-114
-117
-110
-110
-108
-107
-105
-96
-96
-107
-105
-109
-107
-102
-99
-99
-100
-111
-113
-107
-100
-93
-92
-85
-94
-98
-104
-102
-102
-101
-95
-91
-78
-76
-83
-93
-83
-85
-82
-80
-73
-72
-71
-72
-68
-81
-76
-72
-62
-64
-59
-53
-49
-40
-40
-44
-35
-33
-33
-31
-24
-26
-26
-20
-19
-19
-8
-2
2
19
29
22
25
40
54
34
28
41
57
59
68
81
81
86
93
93
105
109
106
107
120
118
120
131
139
131
122
124
120
116
124
123
123
117
104
90
81
75
65
57
51
41
36
34
17
-6
-12
-12
-20
-29
-31
-36
-47
-53
-61
-66
-79
-76
-73
-79
-78
-79
-80
-76
-89
-91
-94
-99
-89
-87
-88
-92
-83
-87
-93
-98
-96
-100
-103
-94
-94
-93
-101
-103
-97
-108
-109
-109
-104
-106
-98
-100
-100
-103
-102
-100
-101
-103
-102
-99
-97
-98
-95
-94
-105
-110
-112
-106
-114
-116
-111
-114
-119
-111
-100
-105
-108
-105
-108
-102
-93
-99
-101
-94
-100
-101
-101
-108
-112
-104
-100
-109
-103
-98
-99
-105
-97
-103
-105
-102
-99
-97
-96
-97
-103
-102
-96
-100
-112
-109
-99
-100
-102
-102
-99
-103
-105
-111
-108
-111
-106
-110
-109
-104
-101
-100
-101
-99
-101
-104
-98
-105
-111
-108
-95
-100
-101
-106
-114
-113
-102
-116
-119
-121
-121
-116
-125
-141
-128
-120
-114
-126
-130
-125
-122
-131
-133
-130
-132
-128
-124
-125
-129
-131
-123
-123
-118
-119
-116
-119
-119
-125
-126
-127
-125
-128
-127
-133
-139
-136
-142
-145
-138
-134
-135
-141
-138
-134
-135
-140
-132
-127
-130
-141
-135
-146
-141
-137
-140
-135
-137
-136
-137
-133
-129
-133
-124
-133
-138
-139
-137
-142
-138
-138
-132
-140
-130
-131
-129
-125
-114
-119
-117
-121
-121
-120
-118
-119
-122
-129
-122
-129
-130
-129
-133
-138
-144
-148
-145
-148
-147
-148
-153
-151
-145
-148
-149
-147
-147
-147
-142
-140
-133
-136
-137
-143
-141
-140
-135
-132
-134
-136
-131
-128
-132
-132
-117
-119
-127
-129
-133
-141
-143
-134
-131
-129
-115
-108
-109
-111
-110
-107
-116
-136
-127
-124
-116
-98
-83
-74
-58
-48
-63
-55
-55
-66
-58
-49
-39
-34
-32
-26
-31
-38
-33
-51
-63
-67
-63
-71
-77
-96
-103
-112
-123
-138
-144
-147
-164
-158
-154
-154
-154
-155
-150
-154
-152
-155
-161
-167
-164
-162
-155
-152
-159
-165
-162
-162
-162
-162
-156
-160
-135
-125
-138
-165
-148
-95
-22
49
161
344
474
590
748
905
1032
1129
1179
1173
1073
907
711
483
278
83
-39
-56
-91
-111
-127
-157
-169
-180
-185
-169
-168
-169
-169
-158
-138
-146
-138
-130
-137
-148
-147
-138
-132
-136
-134
-138
-141
-141
-136
-133
-131
-129
-128
-130
-127
-133
-128
-117
-120
-128
-129
-120
-123
-123
-117
-125
-128
-122
-116
-124
-135
-128
-134
-131
-118
-111
-123
-112
-104
-111
-111
-112
-115
-109
-103
-98
-95
-89
-99
-98
-103
-96
-104
-97
-95
-99
-103
-93
-78
-83
-83
-82
-89
-86
-77
-72
-55
-60
-53
-53
-53
-51
-39
-41
-29
-27
-28
-20
-14
-14
3
6
9
14
25
31
37
43
52
57
66
68
73
90
94
96
105
112
117
118
126
126
129
131
143
128
129
137
131
129
129
132
125
130
123
107
110
102
102
96
85
76
74
63
65
56
39
35
20
9
-1
-10
-14
-21
-25
-46
-59
-57
-59
-70
-71
-64
-75
-76
-76
-90
-98
-94
-95
-89
-94
-92
-101
-101
-95
-99
-101
-98
-97
-106
-103
-96
-97
-97
-110
-107
-101
-106
-99
-112
-121
-115
-117
-113
-105
-116
-129
-105
-104
-118
-123
-118
-129
-146
-128
-126
-120
-122
-120
-121
-114
-121
-128
-122
-111
-105
-111
-97
-106
-106
-112
-118
-116
-120
-119
-121
-126
-123
-110
-109
-119
-114
-121
-112
-109
-115
-121
-107
-113
-114
-102
-106
-117
-114
-110
-111
-115
-109
-102
-105
-114
-116
-123
-118
-124
-117
-115
-104
-116
-127
-119
-127
-123
-108
-101
-107
-118
-119
-123
-121
-123
-121
-119
-117
-120
-112
-111
-116
-121
-124
-126
-126
-126
-127
-129
-133
-127
-122
-126
-121
-131
-138
-135
-145
-141
-142
-128
-127
-127
-143
-139
-134
-138
-145
-142
-131
-133
-139
-143
-140
-143
-150
-165
-157
-162
-161
-156
-156
-163
-160
-155
-154
-153
-151
-143
-144
-150
-156
-139
-142
-143
-152
-153
-151
-150
-155
-154
-150
-159
-153
-162
-156
-157
-152
-140
-135
-138
-140
-140
-156
-154
-151
-153
-146
-153
-146
-135
-143
-139
-140
-135
-148
-149
-152
-153
-151
-153
-142
-143
-148
-138
-155
-158
-143
-131
-145
-145
-160
-157
-159
-166
-161
-156
-151
-153
-151
-144
-125
-143
-142
-148
-159
-146
-149
-136
-137
-143
-143
-150
-157
-148
-157
-152
-154
-146
-142
-151
-144
-143
-147
-152
-129
-135
-134
-129
-134
-124
-121
-128
-149
-147
-143
-138
-127
-115
-94
-77
-79
-78
-97
-93
-89
-89
-68
-62
-65
-52
-46
-44
-55
-58
-59
-60
-71
-84
-97
-107
-95
-117
-135
-149
-154
-156
-157
-175
-166
-163
-162
-160
-174
-171
-176
-170
-161
-156
-157
-162
-161
-163
-163
-165
-176
-180
-179
-175
-170
-157
-167
-149
-137
-123
-134
-155
-119
-63
-5
70
190
350
453
593
773
909
1007
1093
1106
1050
918
735
506
270
85
-83
-154
-157
-191
-197
-221
-240
-241
-225
-213
-198
-172
-170
-167
-149
-149
-142
-135
-133
-135
-140
-140
-134
-137
-136
-130
-139
-148
-132
-136
-145
-142
-143
-149
-141
-145
-144
-129
-115
-129
-121
-115
-118
-112
-121
-121
-125
-132
-128
-127
-124
-124
-118
-124
-122
-126
-127
-126
-126
-127
-140
-126
-115
-123
-120
-113
-115
-108
-112
-116
-113
-115
-105
-110
-113
-106
-98
-102
-100
-92
-87
-83
-82
-80
-76
-71
-71
-70
-71
-63
-70
-63
-62
-59
-61
-45
-38
-43
-39
-31
-41
-13
-14
-15
1
20
10
14
32
37
43
59
56
65
75
81
85
84
101
98
95
96
94
90
96
99
96
105
97
101
105
108
99
99
103
114
93
81
86
68
63
46
42
34
19
12
4
-11
-15
-25
-36
-50
-62
-71
-81
-81
-87
-95
-101
-119
-116
-118
-120
-125
-126
-127
-117
-141
-142
-136
-142
-154
-160
-161
-161
-151
-168
-166
-162
-173
-177
-169
-173
-167
-170
-173
-175
-183
-178
-182
-188
-183
-170
-182
-192
-183
-179
-184
-180
-179
-180
-176
-183
-173
-168
-183
-185
-182
-173
-179
-182
-181
-181
-180
-177
-171
-172
-177
-182
-170
-176
-173
-162
-171
-168
-163
-164
-172
-166
-166
-165
-162
-175
-169
-170
-160
-160
-165
-158
-163
-164
-155
-158
-162
-156
-159
-165
-167
-165
-172
-188
-176
-167
-175
-176
-166
-186
-182
-177
-189
-187
-183
-187
-190
-184
-189
-193
-194
-196
-194
-203
-198
-202
-201
-202
-214
-218
-219
-210
-216
-208
-210
-208
-211
-209
-211
-206
-209
-193
-188
-198
-203
-201
-210
-206
-198
-209
-211
-208
-209
-205
-205
-201
-194
-199
-198
-197
-199
-209
-221
-216
-203
-201
-204
-210
-208
-213
-225
-221
-219
-214
-210
-211
-210
-204
-207
-208
-220
-220
-210
-214
-213
-207
-206
-204
-207
-214
-205
-206
-219
-221
-212
-209
-207
-214
-209
-209
-210
-213
-219
-212
-219
-223
-223
-213
-208
-208
-213
-210
-209
-209
-203
-204
-206
-206
-191
-199
-200
-202
-191
-191
-201
-198
-198
-191
-200
-203
-205
-197
-203
-206
-196
-190
-175
-168
-174
-184
-185
-193
-189
-187
-175
-175
-178
-173
-165
-162
-168
-170
-168
-176
-174
-168
-163
-148
-138
-132
-125
-129
-135
-139
-131
-118
-114
-113
-109
-102
-89
-91
-100
-105
-105
-111
-122
-121
-130
-145
-145
-157
-175
-186
-196
-206
-206
-209
-207
-211
-221
-224
-224
-225
-222
-226
-209
-227
-237
-231
-232
-235
-238
-242
-237
-234
-241
-236
-238
-235
-222
-194
-170
-176
-189
-185
-136
-70
5
82
226
370
460
591
752
867
957
1013
1022
932
795
608
392
198
16
-129
-167
-183
-198
-219
-231
-254
-257
-267
-245
-241
-227
-219
-212
-200
-192
-189
-205
-219
-206
-205
-203
-206
-205
-208
-205
-200
-189
-200
-192
-194
-201
-203
-199
-206
-206
-202
-200
-203
-189
-186
-182
-189
-179
-179
-190
-195
-196
-194
-192
-184
-177
-184
-185
-179
-185
-183
-175
-176
-173
-170
-162
-168
-159
-158
-162
-170
-171
-167
-158
-152
-147
-151
-149
-150
-146
-138
-154
-154
-142
-139
-147
-147
-143
-139
-129
-122
-129
-120
-113
-111
-112
-107
-101
-101
-104
-93
-86
-85
-79
-68
-59
-65
-49
-42
-41
-35
-32
-24
-11
-3
7
14
22
24
29
37
43
48
64
64
65
71
79
76
85
71
70
78
81
68
75
78
73
66
69
65
61
52
37
33
20
11
2
-8
-24
-34
-46
-64
-75
-90
-94
-93
-86
-125
-134
-133
-141
-154
-152
-150
-156
-158
-153
-157
-164
-163
-166
-165
-162
-166
-174
-173
-167
-180
-182
-182
-183
-193
-179
-175
-179
-185
-181
-183
-186
-188
-187
-190
-185
-185
-184
-183
-183
-184
-183
-183
-188
-196
-190
-190
-184
-187
-182
-179
-179
-189
-184
-185
-192
-190
-189
-190
-185
-189
-184
-184
-184
-186
-177
-170
-181
-174
-172
-188
-197
-191
-189
-189
-196
-196
-189
-189
-193
-191
-192
-185
-187
-185
-176
-181
-176
-174
-174
-174
-179
-189
-193
-187
-188
-186
-189
-185
-176
-177
-177
-192
-192
-190
-185
-187
-182
-177
-176
-191
-188
-191
-194
-191
-191
-191
-200
-195
-196
-203
-206
-208
-209
-215
-200
-190
-190
-191
-193
-199
-205
-204
-209
-208
-203
-199
-195
-199
-203
-197
-197
-195
-207
-209
-205
-205
-209
-207
-208
-216
-216
-213
-205
-204
-193
-192
-200
-213
-205
-204
-204
-208
-211
-210
-209
-206
-212
-209
-209
-216
-219
-216
-215
-220
-206
-204
-201
-202
-205
-207
-200
-204
-204
-206
-203
-217
-221
-214
-209
-220
-216
-216
-207
-211
-218
-214
-211
-208
-212
-218
-219
-219
-213
-211
-216
-220
-223
-215
-215
-223
-223
-223
-218
-217
-218
-220
-224
-220
-210
-216
-213
-217
-223
-221
-207
-206
-217
-213
-203
-216
-220
-223
-228
-230
-228
-224
-217
-212
-217
-214
-217
-215
-215
-220
-217
-211
-212
-217
-216
-222
-223
-214
-204
-205
-198
-205
-204
-203
-209
-210
-208
-195
-189
-178
-155
-146
-143
-149
-151
-154
-163
-154
-136
-127
-118
-109
-105
-109
-113
-114
-121
-129
-135
-141
-151
-162
-165
-172
-194
-215
-224
-236
-241
-245
-240
-239
-244
-253
-253
-254
-258
-258
-256
-247
-254
-265
-271
-269
-264
-262
-257
-268
-261
-267
-257
-254
-234
-217
-200
-200
-222
-233
-196
-141
-67
23
158
336
431
550
721
854
963
1046
1078
1021
895
732
524
309
120
-50
-141
-141
-169
-202
-208
-230
-246
-259
-249
-241
-235
-233
-218
-205
-207
-207
-203
-210
-222
-218
-217
-209
-197
-196
-195
-197
-197
-201
-199
-198
-204
-198
-194
-198
-192
-179
-184
-194
-186
-183
-178
-188
-182
-183
-189
-174
-175
-182
-184
-181
-177
-176
-171
-176
-175
-178
-172
-176
-178
-173
-178
-172
-165
-161
-164
-157
-152
-159
-159
-150
-156
-157
-158
-155
-150
-148
-143
-146
-140
-137
-130
-130
-127
-127
-128
-118
-104
-110
-107
-106
-104
-97
-83
-81
-82
-67
-67
-75
-66
-59
-57
-49
-37
-33
-29
-19
-4
-1
0
10
28
34
44
49
51
59
69
74
82
78
81
87
100
102
94
99
99
92
95
109
94
96
97
97
84
79
80
64
53
43
31
14
15
9
3
-9
-29
-42
-59
-69
-78
-88
-96
-100
-94
-92
-105
-117
-117
-121
-144
-148
-139
-147
-155
-158
-161
-168
-167
-167
-179
-181
-184
-176
-171
-182
-177
-183
-182
-191
-197
-189
-185
-191
-190
-184
-184
-180
-194
-195
-190
-196
-185
-184
-190
-179
-182
-194
-190
-194
-201
-206
-199
-201
-194
-201
-199
-204
-204
-205
-204
-194
-190
-189
-187
-188
-185
-195
-199
-200
-202
-203
-197
-206
-202
-197
-196
-201
-197
-193
-196
-206
-193
-191
-187
-188
-189
-189
-187
-184
-189
-188
-190
-178
-176
-177
-183
-187
-182
-179
-170
-187
-181
-182
-180
-175
-168
-173
-170
-177
-176
-173
-169
-174
-176
-180
-183
-184
-185
-195
-203
-203
-188
-183
-181
-188
-182
-185
-179
-180
-186
-190
-187
-178
-184
-181
-177
-180
-178
-175
-188
-186
-167
-170
-177
-171
-164
-186
-183
-182
-173
-190
-190
-199
-195
-186
-183
-181
-179
-182
-180
-189
-194
-194
-191
-192
-191
-196
-203
-200
-200
-198
-190
-188
-199
-197
-192
-199
-202
-201
-206
-197
-197
-197
-194
-196
-198
-195
-185
-179
-173
-181
-179
-183
-177
-173
-178
-179
-190
-189
-189
-184
-182
-181
-176
-175
-177
-187
-184
-192
-195
-206
-203
-201
-195
-192
-193
-204
-203
-201
-192
-200
-202
-199
-200
-196
-191
-190
-200
-203
-204
-203
-198
-194
-185
-184
-190
-194
-204
-190
-194
-202
-196
-191
-196
-192
-184
-198
-195
-189
-190
-181
-170
-177
-181
-174
-169
-177
-168
-162
-163
-155
-145
-143
-140
-142
-154
-157
-165
-156
-137
-130
-113
-90
-84
-88
-83
-96
-98
-96
-77
-70
-48
-60
-56
-57
-49
-64
-61
-67
-86
-108
-108
-113
-111
-132
-153
-175
-173
-190
-206
-206
-210
-200
-207
-211
-217
-225
-223
-223
-223
-229
-231
-236
-242
-231
-224
-235
-238
-237
-236
-248
-251
-242
-240
-236
-207
-200
-224
-243
-222
-165
-80
8
119
307
409
515
688
855
967
1052
1109
1079
955
782
573
344
158
-31
-146
-169
-205
-223
-243
-250
-273
-276
-270
-250
-254
-245
-237
-239
-221
-217
-213
-211
-224
-227
-228
-228
-219
-210
-206
-189
-201
-204
-200
-215
-200
-197
-195
-195
-186
-188
-176
-188
-196
-187
-185
-191
-187
-181
-180
-184
-183
-191
-187
-184
-185
-187
-182
-174
-176
-164
-168
-172
-187
-185
-178
-183
-181
-175
-172
-174
-168
-168
-162
-159
-168
-158
-148
-139
-129
-133
-133
-132
-133
-129
-136
-117
-116
-113
-125
-104
-92
-93
-93
-99
-97
-94
-80
-88
-93
-84
-67
-62
-51
-45
-55
-41
-33
-29
-22
-14
-5
-9
-3
-4
3
21
28
50
48
45
57
54
55
56
61
51
65
67
66
74
73
81
79
83
77
93
85
69
63
68
55
51
36
37
32
8
3
2
-16
-18
-39
-50
-63
-68
-79
-82
-89
-113
-117
-124
-120
-139
-141
-140
-153
-147
-142
-159
-169
-171
-158
-168
-171
-157
-160
-156
-171
-172
-170
-170
-162
-173
-184
-191
-194
-187
-186
-186
-180
-181
-186
-185
-178
-177
-190
-186
-173
-169
-181
-188
-188
-181
-187
-185
-200
-194
-200
-185
-185
-187
-180
-172
-187
-179
-178
-185
-175
-180
-182
-188
-184
-189
-190
-186
-186
-179
-195
-209
-198
-189
-170
-182
-207
-209
-200
-203
-190
-190
-191
-171
-178
-172
-177
-188
-195
-189
-180
-193
-190
-187
-190
-201
-198
-194
-193
-193
-191
-193
-191
-191
-191
-177
-185
-186
-196
-201
-184
-187
-192
-200
-187
-201
-204
-203
-206
-203
-210
-187
-197
-202
-202
-211
-207
-213
-208
-202
-204
-209
-199
-220
-207
-217
-221
-207
-212
-214
-203
-202
-213
-204
-201
-210
-219
-208
-215
-218
-215
-207
-217
-223
-230
-226
-227
-225
-232
-219
-223
-215
-213
-211
-219
-221
-217
-243
-230
-219
-236
-230
-217
-224
-216
-232
-231
-228
-229
-220
-222
-227
-227
-229
-225
-222
-211
-223
-222
-216
-224
-219
-217
-214
-218
-205
-205
-207
-218
-219
-231
-215
-221
-213
-223
-228
-214
-218
-223
-218
-231
-221
-216
-228
-234
-250
-244
-224
-222
-230
-233
-234
-212
-227
-220
-220
-220
-227
-226
-236
-213
-216
-208
-198
-202
-220
-210
-216
-212
-222
-204
-191
-201
-208
-211
-211
-202
-197
-222
-207
-208
-180
-162
-156
-156
-147
-134
-141
-147
-138
-121
-112
-117
-108
-110
-100
-102
-94
-107
-99
-101
-95
-104
-129
-131
-146
-166
-169
-181
-204
-218
-224
-212
-208
-213
-227
-220
-212
-227
-220
-216
-211
-214
-201
-210
-212
-203
-207
-200
-220
-198
-199
-197
-181
-183
-163
-140
-144
-181
-180
-161
-100
-42
36
147
295
418
508
662
810
913
1000
1039
1016
928
759
567
333
152
-29
-137
-142
-157
-170
-190
-217
-234
-231
-227
-219
-208
-202
-180
-174
-175
-180
-177
-178
-177
-177
-192
-167
-175
-168
-153
-155
-165
-171
-173
-182
-171
-159
-152
-154
-151
-160
-136
-148
-159
-153
-157
-142
-148
-153
-162
-177
-171
-174
-164
-164
-175
-161
-165
-160
-163
-163
-151
-147
-142
-158
-143
-157
-160
-155
-154
-168
-144
-152
-145
-140
-134
-123
-110
-112
-105
-113
-107
-117
-110
-110
-101
-93
-97
-95
-85
-90
-97
-87
-93
-90
-77
-62
-56
-55
-53
-55
-46
-29
-27
-29
-8
-8
-7
7
11
-5
-14
3
8
14
19
31
32
55
57
51
58
50
58
64
76
68
65
78
78
88
81
79
71
72
100
77
67
64
63
49
43
44
53
26
16
-6
-21
-11
-15
-47
-45
-39
-53
-75
-81
-95
-96
-104
-110
-117
-110
-123
-119
-143
-129
-133
-151
-151
-148
-145
-151
-151
-150
-147
-144
-153
-148
-146
-147
-147
-170
-155
-149
-165
-142
-141
-163
-174
-157
-151
-163
-155
-155
-151
-155
-159
-158
-155
-150
-159
-160
-150
-157
-156
-159
-144
-151
-148
-138
-155
-147
-139
-160
-168
-153
-156
-170
-148
-145
-160
-168
-160
-156
-156
-134
-162
-155
-149
-148
-168
-146
-151
-147
-159
-165
-150
-141
-145
-138
-138
-143
-148
-147
-147
-149
-141
-142
-151
-154
-154
-159
-165
-147
-152
-162
-174
-172
-158
-163
-174
-185
-174
-183
-162
-170
-167
-166
-163
-165
-149
-155
-151
-155
-164
-164
-163
-160
-175
-165
-177
-156
-184
-187
-176
-173
-184
-177
-187
-176
-184
-179
-188
-182
-196
-190
-196
-159
-164
-195
-200
-176
-180
-182
-185
-181
-178
-181
-188
-181
-186
-194
-187
-191
-201
-189
-201
-198
-179
-192
-196
-190
-215
-210
-201
-208
-207
-198
-190
-197
-203
-191
-196
-196
-207
-194
-207
-231
-219
-198
-206
-210
-212
-194
-197
-201
-205
-206
-193
-193
-200
-204
-215
-198
-208
-194
-177
-183
-193
-185
-195
-197
-182
-194
-197
-186
-186
-174
-189
-195
-183
-205
-202
-204
-207
-198
-190
-184
-182
-196
-187
-180
-194
-200
-191
-178
-177
-165
-165
-152
-177
-178
-164
-166
-169
-165
-149
-141
-128
-121
-129
-130
-121
-140
-138
-131
-123
-126
-102
-93
-104
-103
-104
-107
-96
-89
-93
-102
-116
-113
-143
-148
-158
-171
-183
-182
-180
-199
-194
-186
-198
-201
-195
-189
-201
-190
-186
-196
-195
-194
-197
-192
-189
-207
-198
-203
-200
-198
-206
-204
-182
-164
-134
-142
-162
-165
-118
-89
-19
40
152
271
348
438
564
658
736
789
799
749
636
481
315
132
-29
-140
-185
-200
-202
-197
-235
-234
-236
-229
-216
-200
-195
-192
-191
-173
-171
-167
-153
-167
-164
-159
-166
-172
-162
-154
-172
-165
-168
-160
-161
-159
-158
-156
-149
-152
-161
-160
-155
-149
-161
-155
-159
-157
-145
-147
-154
-153
-152
-160
-163
-161
-152
-140
-144
-143
-139
-137
-143
-143
-145
-136
-132
-135
-129
-130
-136
-133
-146
-135
-132
-134
-141
-124
-112
-110
-123
-103
-94
-107
-114
-117
-110
-94
-88
-75
-87
-94
-86
-86
-89
-76
-62
-72
-62
-63
-73
-52
-50
-46
-41
-33
-36
-27
-17
-22
-7
0
-1
4
15
21
21
39
38
36
52
56
55
61
65
66
71
82
83
86
86
84
85
88
97
95
84
84
90
80
72
65
59
44
36
29
8
14
8
0
-13
-36
-53
-51
-47
-61
-68
-67
-74
-80
-93
-94
-106
-108
-111
-110
-114
-117
-110
-121
-125
-132
-140
-133
-140
-124
-133
-135
-139
-130
-147
-152
-140
-148
-151
-151
-147
-141
-143
-142
-149
-138
-141
-154
-136
-127
-139
-149
-146
-147
-154
-158
-166
-164
-167
-154
-152
-168
-152
-151
-160
-156
-147
-152
-160
-158
-160
-157
-160
-150
-157
-152
-157
-160
-150
-152
-148
-151
-135
-145
-156
-159
-159
-151
-138
-140
-147
-152
-156
-153
-156
-157
-149
-148
-151
-146
-133
-140
-143
-153
-158
-150
-131
-139
-145
-130
-134
-139
-124
-129
-138
-134
-144
-149
-140
-142
-138
-135
-122
-123
-135
-127
-133
-127
-138
-139
-141
-154
-133
-142
-147
-140
-160
-166
-174
-170
-166
-167
-159
-149
-165
-162
-156
-155
-164
-169
-162
-160
-156
-148
-165
-179
-177
-173
-171
-175
-168
-165
-175
-171
-169
-170
-175
-178
-179
-169
-164
-169
-163
-172
-168
-163
-176
-176
-183
-192
-179
-178
-177
-172
-176
-183
-180
-166
-164
-168
-174
-177
-179
-174
-183
-184
-185
-182
-187
-197
-187
-190
-179
-173
-179
-172
-180
-200
-206
-188
-185
-185
-179
-180
-182
-182
-190
-189
-193
-192
-182
-175
-178
-185
-183
-188
-182
-182
-184
-179
-189
-181
-162
-164
-176
-173
-167
-172
-180
-182
-182
-176
-173
-182
-187
-189
-183
-167
-182
-182
-191
-192
-180
-180
-186
-190
-191
-181
-172
-163
-166
-165
-163
-185
-190
-185
-181
-182
-187
-173
-176
-172
-163
-162
-166
-172
-161
-169
-160
-162
-152
-141
-141
-141
-141
-153
-153
-168
-168
-153
-147
-135
-111
-107
-93
-94
-94
-97
-101
-88
-79
-74
-76
-70
-70
-54
-60
-71
-70
-84
-97
-106
-103
-98
-105
-120
-124
-152
-159
-151
-157
-164
-166
-169
-169
-171
-180
-188
-191
-176
-177
-178
-180
-185
-177
-176
-177
-192
-202
-195
-189
-189
-197
-189
-209
-196
-169
-156
-164
-183
-155
-100
-39
43
139
288
391
465
591
714
799
891
954
939
867
732
579
371
184
33
-79
-91
-98
-124
-149
-162
-185
-194
-197
-191
-179
-185
-172
-168
-167
-158
-167
-175
-182
-183
-189
-190
-183
-184
-186
-189
-176
-180
-178
-172
-175
-170
-172
-167
-169
-168
-163
-167
-173
-170
-172
-170
-167
-161
-166
-167
-153
-160
-161
-150
-148
-146
-133
-137
-147
-150
-151
-153
-165
-163
-167
-166
-152
-148
-155
-159
-148
-135
-136
-139
-141
-142
-137
-135
-133
-129
-128
-129
-124
-125
-133
-135
-123
-121
-122
-112
-111
-110
-108
-103
-96
-94
-81
-86
-94
-92
-83
-84
-80
-69
-58
-58
-47
-35
-39
-38
-32
-22
-30
-14
-9
-3
-1
4
8
12
15
24
34
39
40
43
47
54
59
46
44
47
46
51
54
51
61
59
55
46
48
42
29
23
22
16
9
-8
-18
-31
-39
-49
-61
-68
-79
-86
-80
-89
-109
-117
-123
-129
-133
-129
-140
-147
-147
-143
-147
-151
-152
-146
-157
-154
-152
-161
-163
-170
-171
-169
-169
-168
-172
-174
-170
-172
-175
-166
-171
-167
-178
-166
-162
-167
-182
-177
-169
-173
-182
-171
-177
-181
-184
-174
-167
-169
-163
-158
-174
-174
-175
-190
-190
-184
-183
-179
-183
-173
-181
-182
-182
-184
-181
-183
-178
-184
-183
-173
-173
-176
-170
-169
-172
-167
-173
-181
-173
-174
-180
-175
-170
-180
-184
-177
-169
-168
-172
-179
-184
-187
-192
-193
-190
-185
-179
-181
-177
-167
-167
-170
-186
-176
-178
-181
-177
-179
-180
-178
-179
-179
-179
-183
-183
-182
-185
-182
-182
-180
-185
-185
-190
-196
-200
-191
-194
-196
-197
-193
-198
-213
-217
-214
-216
-211
-212
-213
-222
-217
-229
-229
-229
-230
-219
-215
-207
-211
-207
-203
-201
-192
-209
-216
-219
-218
-218
-220
-212
-216
-218
-215
-214
-227
-225
-216
-210
-211
-217
-214
-228
-224
-226
-228
-225
-218
-223
-212
-215
-221
-223
-223
-224
-218
-218
-217
-219
-223
-214
-209
-222
-214
-216
-217
-216
-214
-215
-218
-217
-225
-226
-220
-216
-223
-229
-216
-207
-209
-207
-203
-207
-205
-206
-214
-211
-209
-205
-211
-204
-210
-216
-219
-223
-217
-217
-217
-214
-214
-206
-211
-208
-217
-226
-219
-218
-224
-218
-222
-226
-222
-221
-216
-222
-220
-220
-221
-209
-206
-200
-197
-214
-216
-212
-204
-206
-204
-198
-200
-207
-210
-216
-211
-207
-215
-218
-214
-210
-210
-208
-212
-222
-219
-210
-212
-221
-221
-230
-231
-226
-231
-229
-229
-225
-228
-224
-212
-211
-216
-209
-204
-209
-206
-207
-207
-202
-187
-190
-188
-177
-180
-183
-182
-184
-197
-196
-171
-162
-148
-133
-135
-142
-143
-159
-150
-141
-121
-116
-104
-100
-102
-114
-116
-129
-133
-142
-145
-143
-146
-155
-165
-177
-192
-201
-209
-208
-213
-225
-224
-226
-232
-242
-242
-233
-234
-247
-241
-247
-243
-242
-252
-255
-253
-256
-257
-258
-260
-257
-255
-250
-243
-226
-206
-209
-229
-225
-177
-119
-45
50
207
345
418
549
703
816
918
1004
1019
939
815
638
438
243
59
-101
-150
-154
-195
-207
-225
-235
-256
-260
-253
-258
-247
-244
-238
-226
-225
-240
-244
-242
-248
-245
-231
-228
-230
-233
-240
-241
-250
-236
-236
-232
-227
-223
-226
-229
-227
-229
-232
-228
-228
-225
-223
-217
-216
-211
-217
-216
-221
-229
-224
-228
-235
-229
-228
-227
-229
-221
-220
-220
-222
-220
-218
-227
-222
-218
-207
-214
-218
-215
-211
-212
-204
-202
-200
-200
-194
-187
-185
-182
-183
-175
-172
-178
-170
-169
-159
-161
-160
-153
-157
-156
-150
-151
-149
-139
-135
-136
-119
-111
-118
-103
-107
-107
-103
-96
-94
-91
-80
-74
-72
-70
-58
-44
-35
-30
-23
-19
-19
-12
-17
-9
0
6
10
9
12
1
4
0
6
2
0
4
1
0
1
0
-6
-7
-12
-29
-36
-51
-52
-62
-71
-83
-104
-114
-118
-123
-130
-140
-155
-162
-166
-180
-184
-188
-188
-195
-203
-204
-198
-207
-215
-222
-219
-222
-218
-220
-222
-228
-224
-226
-230
-233
-237
-229
-220
-226
-234
-227
-230
-229
-224
-223
-220
-217
-219
-225
-225
-229
-231
-225
-231
-230
-225
-230
-241
-241
-234
-231
-233
-234
-238
-244
-245
-248
-244
-242
-250
-248
-248
-246
-245
-252
-260
-254
-252
-250
-253
-248
-247
-240
-228
-223
-238
-240
-246
-247
-247
-238
-230
-239
-250
-240
-236
-240
-242
-247
-241
-244
-239
-237
-243
-244
-241
-236
-248
-249
-251
-262
-252
-251
-246
-244
-242
-230
-237
-245
-241
-240
-231
-226
-221
-228
-241
-239
-245
-248
-246
-243
-228
-231
-234
-242
-244
-251
-252
-256
-255
-254
-247
-237
-232
-232
-237
-239
-254
-254
-253
-242
-249
-253
-245
-241
-249
-261
-260
-256
-250
-248
-253
-257
-253
-244
-250
-256
-249
-253
-249
-242
-246
-248
-256
-256
-254
-257
-256
-249
-238
-243
-241
-249
-244
-250
-245
-246
-255
-254
-242
-244
-248
-239
-237
-235
-241
-239
-244
-239
-235
-238
-237
-229
-232
-237
-232
-238
-237
-227
-217
-232
-239
-235
-229
-229
-240
-248
-244
-244
-238
-231
-243
-244
-237
-250
-251
-247
-250
-253
-244
-246
-244
-249
-254
-260
-253
-252
-253
-259
-259
-257
-252
-255
-249
-248
-251
-254
-263
-260
-249
-244
-248
-253
-253
-247
-258
-260
-262
-262
-265
-264
-264
-265
-261
-268
-265
-260
-257
-257
-257
-254
-257
-252
-256
-264
-264
-261
-262
-265
-264
-258
-258
-261
-257
-270
-269
-268
-264
-260
-251
-256
-261
-259
-260
-263
-262
-255
-253
-250
-235
-229
-215
-215
-217
-221
-234
-237
-242
-231
-206
-183
-168
-166
-165
-171
-172
-179
-177
-167
-151
-142
-142
-143
-146
-138
-145
-152
-159
-172
-171
-164
-180
-189
-195
-209
-223
-225
-250
-252
-258
-256
-248
-241
-266
-285
-285
-279
-282
-279
-278
-270
-275
-278
-279
-292
-290
-286
-292
-295
-286
-288
-292
-286
-274
-250
-235
-242
-266
-260
-206
-139
-63
40
217
349
450
598
760
864
967
1029
1019
922
760
569
344
148
-43
-171
-185
-213
-242
-265
-287
-300
-293
-301
-287
-279
-274
-265
-249
-235
-234
-238
-239
-244
-258
-259
-254
-244
-242
-246
-252
-251
-251
-252
-246
-240
-233
-226
-229
-229
-227
-231
-230
-236
-231
-232
-221
-215
-207
-204
-204
-207
-213
-210
-222
-223
-215
-212
-215
-217
-214
-215
-218
-227
-228
-223
-211
-217
-217
-212
-211
-215
-210
-205
-199
-206
-195
-185
-183
-180
-176
-181
-176
-171
-173
-163
-161
-181
-174
-168
-154
-174
-175
-167
-168
-165
-150
-152
-145
-142
-136
-129
-126
-123
-121
-114
-107
-104
-91
-88
-81
-81
-69
-62
-57
-46
-39
-34
-28
-21
-6
-5
-1
3
3
8
25
23
17
25
35
25
23
27
41
32
35
40
35
25
11
8
7
2
-4
-16
-15
-33
-42
-43
-51
-56
-67
-83
-98
-114
-120
-133
-135
-133
-149
-156
-161
-169
-178
-179
-177
-182
-191
-193
-191
-201
-210
-198
-193
-200
-198
-199
-211
-198
-190
-201
-205
-203
-201
-202
-214
-213
-215
-211
-214
-219
-218
-217
-222
-219
-209
-211
-215
-211
-212
-227
-221
-227
-225
-230
-207
-214
-216
-204
-208
-210
-216
-225
-221
-217
-219
-218
-224
-220
-219
-221
-220
-205
-215
-222
-219
-214
-216
-205
-206
-194
-213
-223
-222
-215
-219
-214
-210
-205
-192
-195
-200
-204
-199
-209
-209
-218
-222
-221
-223
-222
-217
-223
-219
-206
-194
-201
-209
-205
-209
-219
-223
-224
-217
-210
-216
-226
-217
-204
-214
-229
-227
-235
-234
-239
-239
-231
-248
-242
-241
-251
-241
-241
-245
-244
-242
-236
-233
-237
-239
-248
-246
-245
-250
-246
-240
-239
-245
-248
-240
-255
-256
-264
-254
-265
-253
-266
-261
-260
-259
-254
-260
-257
-257
-255
-244
-242
-246
-250
-238
-244
-248
-240
-247
-251
-250
-244
-240
-247
-263
-262
-269
-276
-274
-268
-271
-254
-266
-262
-249
-252
-246
-256
-254
-253
-252
-238
-242
-241
-239
-252
-247
-237
-242
-242
-240
-228
-240
-238
-238
-244
-247
-245
-242
-244
-240
-236
-234
-235
-250
-253
-248
-244
-241
-238
-238
-245
-253
-245
-243
-244
-246
-247
-248
-249
-249
-251
-251
-245
-256
-251
-250
-251
-255
-255
-256
-259
-257
-243
-254
-264
-268
-269
-265
-254
-261
-256
-254
-245
-237
-230
-230
-239
-236
-233
-231
-235
-218
-212
-220
-207
-207
-196
-199
-207
-208
-213
-213
-199
-190
-176
-162
-153
-149
-146
-146
-150
-153
-140
-134
-136
-132
-121
-129
-126
-128
-138
-127
-133
-148
-157
-176
-193
-203
-212
-223
-241
-252
-258
-258
-269
-282
-278
-284
-286
-281
-287
-291
-284
-291
-285
-288
-298
-293
-296
-283
-279
-286
-279
-286
-297
-289
-291
-278
-263
-238
-229
-262
-266
-225
-167
-105
-28
104
258
371
510
678
817
920
982
986
902
753
559
330
110
-78
-256
-294
-295
-322
-347
-371
-399
-394
-369
-339
-322
-310
-310
-303
-290
-256
-248
-254
-255
-262
-267
-258
-250
-247
-257
-265
-253
-254
-253
-252
-251
-257
-251
-250
-253
-254
-259
-244
-237
-241
-245
-242
-239
-248
-245
-236
-235
-228
-241
-235
-231
-231
-227
-229
-223
-209
-233
-234
-223
-227
-238
-225
-218
-230
-216
-214
-226
-208
-209
-206
-198
-198
-192
-196
-187
-193
-185
-183
-174
-172
-192
-179
-180
-167
-160
-160
-137
-152
-142
-150
-140
-139
-129
-123
-116
-114
-116
-106
-107
-101
-100
-91
-90
-90
-78
-75
-69
-50
-45
-46
-35
-24
-22
-19
3
4
5
-1
2
13
28
38
15
25
20
21
16
36
27
32
35
40
32
22
40
31
13
20
23
20
11
-16
-27
-32
-46
-40
-59
-77
-93
-90
-99
-104
-123
-132
-128
-139
-144
-143
-140
-156
-152
-164
-178
-175
-174
-178
-179
-169
-172
-170
-179
-191
-193
-181
-193
-184
-200
-202
-203
-196
-195
-178
-195
-197
-192
-206
-197
-202
-197
-203
-197
-196
-205
-209
-199
-191
-188
-194
-195
-195
-200
-184
-192
-200
-198
-195
-203
-210
-217
-207
-203
-208
-213
-203
-195
-203
-203
-204
-197
-198
-212
-202
-214
-211
-212
-212
-208
-212
-216
-203
-206
-213
-212
-208
-208
-207
-217
-208
-215
-206
-207
-212
-210
-211
-215
-207
-215
-203
-203
-204
-203
-203
-201
-215
-207
-211
-220
-217
-208
-208
-217
-216
-217
-217
-222
-230
-231
-231
-231
-225
-220
-217
-231
-232
-219
-217
-230
-224
-218
-208
-210
-205
-223
-221
-234
-244
-245
-241
-235
-236
-233
-239
-236
-244
-240
-234
-239
-237
-243
-250
-234
-235
-240
-239
-236
-244
-252
-228
-227
-234
-237
-234
-236
-242
-237
-238
-241
-238
-246
-241
-237
-233
-241
-233
-241
-248
-247
-239
-250
-247
-255
-246
-256
-258
-258
-258
-276
-264
-267
-272
-259
-258
-252
-252
-252
-261
-251
-247
-232
-218
-207
-208
-227
-226
-225
-216
-208
-200
-197
-199
-195
-217
-226
-227
-233
-237
-231
-219
-207
-203
-201
-204
-204
-205
-215
-213
-210
-204
-198
-194
-187
-192
-200
-199
-209
-205
-195
-183
-180
-180
-176
-174
-181
-181
-183
-191
-185
-175
-153
-152
-129
-112
-119
-122
-125
-124
-109
-105
-106
-102
-94
-84
-77
-79
-86
-90
-103
-96
-94
-107
-120
-135
-139
-150
-161
-175
-179
-182
-196
-202
-208
-211
-219
-221
-211
-210
-214
-211
-214
-217
-206
-218
-216
-218
-218
-216
-211
-204
-223
-222
-204
-189
-192
-173
-172
-191
-184
-139
-82
-13
68
220
349
446
579
731
824
918
968
952
858
707
531
309
122
-72
-203
-214
-232
-244
-255
-271
-292
-286
-287
-262
-258
-240
-231
-225
-208
-188
-203
-208
-220
-219
-214
-205
-201
-196
-196
-198
-204
-210
-203
-206
-214
-216
-210
-208
-202
-204
-209
-210
-204
-203
-207
-204
-194
-187
-200
-204
-203
-199
-198
-197
-188
-197
-203
-197
-187
-180
-192
-196
-196
-195
-189
-200
-201
-198
-192
-185
-189
-190
-192
-189
-183
-171
-171
-179
-175
-176
-181
-172
-154
-169
-173
-161
-161
-151
-140
-139
-145
-143
-139
-134
-134
-135
-127
-120
-110
-108
-104
-100
-90
-92
-86
-75
-68
-66
-54
-44
-44
-36
-28
-18
-18
-17
-2
10
2
9
12
15
19
22
29
36
37
41
47
61
50
55
62
57
50
50
50
52
51
48
36
26
21
13
7
-9
-14
-24
-35
-39
-56
-64
-75
-85
-102
-121
-114
-124
-127
-133
-142
-152
-154
-157
-166
-162
-164
-175
-172
-171
-185
-190
-186
-190
-196
-191
-187
-183
-196
-197
-210
-207
-198
-196
-201
-200
-205
-206
-199
-182
-205
-209
-209
-210
-208
-197
-190
-192
-200
-195
-195
-199
-194
-192
-200
-197
-191
-200
-195
-195
-203
-198
-197
-201
-209
-202
-197
-196
-199
-194
-200
-196
-198
-197
-198
-202
-191
-193
-203
-203
-204
-209
-208
-206
-201
-196
-198
-195
-187
-185
-190
-189
-192
-197
-194
-191
-188
-193
-197
-197
-189
-193
-201
-203
-205
-217
-221
-224
-218
-212
-212
-204
-198
-210
-212
-201
-196
-206
-214
-208
-216
-218
-217
-214
-200
-203
-209
-204
-203
-202
-205
-212
-209
-202
-212
-210
-214
-210
-206
-203
-209
-211
-207
-206
-206
-207
-203
-203
-202
-206
-203
-208
-211
-211
-209
-204
-209
-210
-208
-206
-209
-204
-209
-210
-209
-203
-201
-203
-197
-204
-213
-212
-210
-216
-210
-205
-206
-221
-212
-213
-208
-203
-214
-220
-227
-222
-222
-219
-221
-224
-227
-229
-218
-209
-220
-213
-213
-219
-217
-224
-227
-228
-222
-224
-229
-223
-231
-228
-224
-218
-216
-221
-217
-218
-216
-210
-212
-227
-218
-217
-215
-212
-226
-230
-227
-213
-220
-214
-215
-209
-214
-210
-212
-216
-211
-213
-213
-213
-206
-210
-216
-220
-219
-220
-222
-219
-221
-220
-212
-207
-220
-236
-226
-229
-229
-219
-211
-201
-194
-189
-183
-180
-179
-178
-195
-202
-191
-181
-167
-156
-154
-150
-145
-145
-147
-141
-138
-135
-118
-99
-91
-86
-90
-98
-102
-101
-104
-123
-128
-135
-149
-154
-162
-184
-197
-193
-200
-204
-210
-219
-221
-217
-227
-228
-234
-228
-236
-243
-242
-243
-245
-244
-247
-254
-248
-244
-251
-253
-252
-256
-258
-253
-233
-223
-219
-236
-250
-211
-133
-61
16
148
320
405
523
690
813
913
1003
1043
984
871
688
490
274
84
-76
-159
-164
-194
-214
-243
-266
-283
-288
-273
-273
-275
-263
-254
-244
-226
-224
-238
-244
-244
-250
-240
-237
-234
-235
-235
-243
-238
-234
-230
-225
-232
-238
-232
-232
-234
-234
-241
-241
-229
-228
-221
-215
-215
-225
-218
-217
-219
-225
-219
-213
-214
-208
-207
-208
-215
-226
-220
-221
-226
-230
-223
-216
-218
-216
-216
-221
-217
-219
-222
-213
-215
-209
-208
-202
-203
-203
-202
-200
-196
-190
-193
-188
-180
-182
-177
-172
-177
-180
-176
-162
-164
-163
-159
-160
-158
-155
-155
-149
-138
-132
-124
-126
-122
-121
-110
-107
-104
-83
-76
-73
-75
-62
-52
-50
-33
-27
-24
-24
-13
-5
-12
-7
-1
-2
-4
0
-4
0
5
5
14
9
-3
-10
-7
-13
-16
-21
-26
-27
-39
-45
-52
-63
-72
-79
-91
-105
-110
-123
-133
-142
-146
-153
-154
-166
-181
-192
-186
-195
-198
-194
-196
-197
-201
-206
-221
-227
-226
-223
-225
-221
-217
-211
-222
-220
-217
-219
-214
-215
-214
-215
-218
-215
-217
-223
-225
-223
-219
-215
-215
-209
-215
-223
-225
-229
-226
-225
-220
-223
-220
-218
-222
-223
-220
-221
-218
-212
-216
-206
-208
-206
-193
-200
-198
-197
-204
-209
-210
-217
-210
-210
-206
-210
-204
-204
-212
-211
-199
-196
-191
-198
-200
-201
-209
-219
-218
-222
-215
-213
-213
-208
-211
-209
-205
-209
-218
-216
-207
-205
-209
-206
-198
-203
-201
-210
-210
-209
-204
-216
-213
-210
-209
-210
-214
-216
-221
-224
-220
-216
-209
-212
-207
-216
-212
-202
-216
-218
-212
-213
-216
-210
-214
-216
-216
-213
-218
-217
-206
-216
-209
-211
-222
-223
-218
-216
-225
-218
-210
-202
-210
-206
-193
-201
-197
-191
-181
-195
-191
-201
-201
-196
-191
-201
-202
-198
-203
-200
-197
-191
-196
-201
-210
-213
-210
-208
-204
-210
-204
-199
-190
-192
-194
-203
-201
-195
-206
-211
-205
-207
-209
-209
-204
-212
-210
-204
-197
-199
-194
-194
-191
-191
-195
-194
-196
-200
-202
-201
-191
-194
-191
-191
-193
-200
-204
-202
-201
-207
-197
-194
-203
-202
-198
-196
-190
-189
-188
-188
-183
-181
-179
-174
-180
-187
-193
-194
-192
-189
-178
-178
-169
-160
-160
-165
-162
-166
-164
-168
-155
-155
-152
-154
-157
-154
-143
-140
-142
-134
-137
-146
-138
-148
-152
-147
-130
-118
-121
-117
-112
-114
-116
-114
-129
-124
-102
-95
-92
-74
-54
-58
-53
-53
-65
-72
-53
-49
-41
-30
-20
-18
-20
-18
-19
-44
-65
-67
-69
-79
-80
-93
-109
-125
-133
-147
-156
-161
-173
-171
-163
-156
-165
-163
-164
-179
-182
-186
-179
-184
-181
-172
-174
-166
-173
-176
-182
-183
-181
-175
-168
-174
-145
-134
-142
-167
-158
-104
-41
38
134
310
446
557
707
867
992
1099
1161
1159
1048
891
703
476
269
79
-71
-99
-116
-129
-153
-183
-197
-196
-194
-171
-169
-163
-162
-156
-135
-145
-131
-134
-138
-149
-145
-139
-138
-136
-129
-134
-123
-124
-133
-144
-137
-139
-142
-136
-129
-115
-111
-127
-118
-110
-123
-128
-123
-115
-108
-108
-110
-115
-121
-122
-122
-121
-122
-118
-112
-116
-105
-103
-98
-100
-104
-113
-113
-109
-108
-108
-98
-99
-107
-121
-109
-98
-100
-103
-102
-97
-96
-91
-96
-91
-85
-83
-86
-77
-75
-67
-74
-65
-73
-71
-62
-54
-49
-52
-40
-31
-25
-7
-4
-7
-9
0
12
24
28
32
43
40
49
53
57
68
75
86
89
89
114
117
106
118
106
120
128
132
133
128
131
130
134
135
137
138
141
134
135
130
125
118
109
86
93
73
57
50
47
30
32
11
5
-4
0
-24
-43
-50
-54
-59
-64
-69
-71
-75
-80
-90
-102
-105
-109
-118
-108
-93
-94
-113
-119
-112
-120
-102
-110
-127
-122
-110
-113
-114
-123
-117
-121
-127
-110
-106
-123
-119
-127
-132
-134
-133
-134
-133
-120
-139
-126
-118
-132
-127
-124
-119
-121
-126
-132
-128
-129
-136
-138
-141
-139
-127
-123
-126
-139
-137
-141
-139
-147
-139
-128
-145
-136
-124
-129
-135
-145
-139
-144
-151
-151
-132
-155
-154
-137
-141
-140
-131
-125
-137
-140
-131
-141
-130
-119
-127
-137
-123
-114
-115
-125
-138
-142
-135
-138
-135
-135
-127
-131
-131
-119
-137
-135
-127
-127
-134
-133
-122
-131
-135
-135
-120
-139
-137
-135
-132
-140
-137
-140
-141
-136
-127
-138
-129
-109
-112
-120
-112
-123
-115
-120
-136
-138
-132
-128
-132
-135
-134
-135
-126
-130
-135
-115
-115
-133
-141
-146
-125
-128
-124
-118
-115
-126
-132
-122
-124
-123
-113
-110
-132
-116
-118
-126
-111
-122
-120
-114
-116
-118
-122
-125
-115
-131
-139
-128
-129
-110
-122
-120
-134
-139
-133
-131
-128
-116
-120
-130
-117
-124
-133
-133
-123
-126
-119
-127
-122
-133
-128
-131
-146
-137
-146
-135
-135
-146
-142
-139
-134
-127
-134
-129
-132
-149
-147
-150
-155
-150
-135
-124
-125
-131
-130
-127
-134
-143
-135
-133
-130
-135
-149
-150
-137
-146
-135
-129
-122
-125
-131
-138
-135
-125
-121
-119
-123
-90
-101
-95
-83
-99
-105
-103
-111
-96
-83
-71
-60
-52
-42
-48
-63
-66
-66
-63
-44
-34
-35
-28
0
6
0
-22
-30
-37
-39
-44
-68
-64
-79
-108
-116
-126
-137
-149
-141
-145
-148
-145
-145
-154
-146
-143
-142
-149
-153
-142
-148
-136
-140
-138
-139
-135
-139
-149
-152
-149
-160
-152
-163
-153
-136
-112
-107
-130
-117
-56
5
77
170
336
454
569
736
890
991
1060
1109
1061
952
780
576
349
162
-31
-131
-133
-158
-166
-179
-221
-240
-231
-206
-191
-172
-159
-153
-146
-135
-124
-122
-121
-131
-132
-122
-111
-122
-119
-115
-111
-107
-103
-107
-123
-107
-112
-104
-105
-96
-106
-108
-86
-79
-105
-99
-92
-87
-86
-81
-87
-105
-97
-82
-91
-93
-81
-82
-79
-73
-78
-77
-73
-79
-90
-93
-81
-82
-86
-81
-70
-77
-68
-66
-72
-69
-63
-60
-56
-50
-52
-48
-47
-45
-53
-43
-35
-26
-39
-30
-21
-18
-14
-22
-18
-15
3
14
15
20
25
34
39
37
37
40
51
64
51
63
67
82
105
105
104
123
117
124
137
146
139
151
147
152
147
151
156
155
164
172
162
159
159
162
155
155
169
161
151
142
145
138
140
125
118
118
114
101
92
73
62
59
51
39
24
24
12
-7
-8
-15
-32
-42
-41
-39
-40
-42
-43
-52
-75
-75
-82
-81
-86
-81
-86
-82
-84
-89
-85
-85
-81
-87
-95
-92
-87
-92
-90
-88
-89
-90
-92
-100
-96
-93
-92
-93
-88
-96
-75
-76
-85
-90
-89
-98
-102
-100
-94
-93
-89
-73
-76
-92
-93
-93
-92
-92
-86
-78
-83
-80
-84
-98
-95
-94
-106
-109
-102
-101
-89
-93
-100
-110
-94
-98
-113
-107
-108
-107
-107
-97
-114
-110
-92
-95
-104
-91
-94
-98
-94
-86
-90
-95
-96
-94
-89
-78
-77
-83
-83
-80
-77
-84
-87
-77
-75
-70
-61
-72
-62
-63
-72
-77
-73
-72
-79
-80
-71
-75
-68
-70
-74
-78
-76
-79
-81
-78
-70
-72
-67
-85
-92
-93
-87
-87
-90
-92
-100
-101
-89
-88
-91
-102
-101
-99
-101
-102
-110
-115
-113
-107
-112
-108
-115
-120
-125
-121
-115
-117
-120
-114
-109
-109
-111
-115
-120
-119
-112
-112
-112
-105
-109
-105
-104
-106
-113
-107
-110
-115
-117
-112
-119
-108
-112
-128
-134
-140
-128
-130
-128
-126
-142
-144
-140
-136
-138
-132
-130
-137
-131
-130
-124
-124
-126
-132
-129
-133
-136
-134
-131
-136
-139
-134
-128
-128
-130
-119
-121
-122
-122
-121
-127
-130
-121
-115
-110
-113
-124
-125
-116
-116
-124
-118
-115
-114
-132
-126
-116
-113
-117
-116
-120
-122
-123
-124
-132
-115
-119
-112
-107
-101
-96
-105
-109
-108
-110
-105
-110
-115
-112
-106
-104
-100
-102
-98
-97
-94
-97
-110
-118
-114
-106
-97
-79
-64
-55
-34
-28
-36
-51
-50
-51
-34
-33
-21
-8
-7
-7
-7
-15
-25
-39
-36
-50
-56
-55
-62
-76
-84
-102
-107
-125
-137
-141
-141
-137
-135
-134
-142
-137
-132
-134
-141
-142
-145
-146
-147
-152
-149
-154
-154
-157
-155
-156
-156
-159
-151
-148
-119
-108
-119
-153
-127
-87
-19
63
179
351
465
550
705
854
955
1058
1108
1082
998
857
668
460
276
96
-33
-61
-86
-105
-122
-149
-158
-166
-158
-148
-158
-158
-158
-146
-132
-124
-127
-132
-132
-122
-129
-133
-136
-131
-127
-114
-114
-115
-122
-124
-127
-124
-127
-127
-112
-114
-113
-110
-104
-98
-98
-97
-115
-111
-104
-105
-100
-109
-110
-113
-113
-119
-112
-112
-103
-106
-106
-99
-92
-100
-100
-100
-96
-88
-80
-87
-84
-84
-88
-93
-93
-91
-94
-87
-88
-89
-87
-81
-75
-70
-71
-71
-72
-62
-61
-59
-54
-48
-35
-35
-38
-30
-25
-22
-18
-9
-3
-1
2
5
16
23
33
30
32
43
50
64
60
59
72
76
81
87
103
111
111
125
135
132
130
135
132
133
150
152
156
166
172
168
164
164
162
158
150
133
131
132
120
111
103
91
74
54
50
46
32
29
26
17
9
2
-6
-16
-20
-32
-40
-45
-55
-64
-70
-73
-72
-80
-75
-75
-86
-80
-76
-87
-86
-93
-89
-95
-79
-79
-80
-87
-88
-101
-113
-111
-111
-106
-98
-95
-101
-94
-94
-103
-108
-110
-108
-109
-107
-105
-106
-109
-106
-102
-103
-109
-114
-108
-101
-104
-97
-97
-101
-110
-118
-121
-114
-119
-121
-121
-116
-117
-110
-101
-111
-106
-109
-110
-106
-107
-96
-110
-108
-108
-105
-113
-109
-116
-110
-106
-103
-103
-100
-89
-96
-113
-112
-105
-92
-92
-86
-93
-95
-103
-89
-91
-92
-95
-89
-108
-114
-108
-109
-107
-113
-114
-114
-108
-103
-110
-100
-109
-109
-120
-125
-117
-128
-131
-123
-116
-123
-119
-120
-124
-127
-133
-127
-129
-124
-127
-128
-126
-133
-135
-128
-126
-129
-133
-123
-119
-117
-110
-114
-123
-111
-119
-125
-124
-119
-118
-123
-117
-114
-112
-106
-113
-116
-117
-111
-105
-96
-106
-106
-109
-106
-103
-106
-118
-114
-112
-106
-103
-104
-109
-109
-123
-120
-110
-99
-100
-109
-114
-105
-106
-112
-117
-118
-113
-108
-111
-111
-100
-101
-104
-95
-94
-108
-101
-99
-109
-108
-107
-102
-113
-114
-115
-107
-102
-93
-89
-87
-94
-99
-100
-101
-109
-110
-112
-121
-123
-114
-110
-107
-107
-114
-114
-114
-115
-112
-122
-117
-108
-116
-123
-126
-124
-134
-137
-133
-130
-130
-131
-130
-140
-145
-141
-140
-134
-141
-142
-141
-136
-146
-138
-141
-139
-139
-143
-139
-136
-135
-130
-146
-149
-143
-140
-139
-142
-137
-131
-131
-123
-115
-117
-120
-124
-121
-126
-118
-121
-117
-115
-99
-90
-78
-80
-83
-94
-93
-93
-88
-86
-64
-45
-43
-40
-32
-36
-39
-33
-36
-30
-24
-16
-10
9
4
-1
8
-1
1
-18
-29
-40
-39
-46
-48
-77
-90
-97
-116
-115
-120
-129
-137
-141
-144
-146
-143
-136
-133
-134
-132
-129
-143
-153
-152
-152
-144
-154
-160
-158
-153
-155
-165
-169
-165
-153
-125
-120
-145
-157
-124
-73
7
92
226
402
504
616
792
935
1040
1127
1164
1115
991
830
639
415
215
33
-55
-57
-85
-110
-134
-169
-168
-175
-156
-147
-145
-142
-155
-136
-126
-125
-124
-140
-149
-136
-135
-132
-127
-127
-125
-127
-122
-125
-130
-125
-126
-133
-139
-127
-123
-126
-116
-118
-118
-110
-112
-113
-110
-108
-102
-107
-102
-100
-95
-91
-86
-95
-87
-80
-89
-95
-94
-99
-102
-94
-92
-95
-90
-82
-70
-74
-69
-70
-68
-64
-61
-54
-63
-64
-67
-58
-58
-55
-50
-49
-52
-53
-50
-46
-48
-50
-46
-49
-38
-31
-31
-31
-30
-22
-26
-18
0
1
3
16
28
31
32
31
43
44
61
65
74
77
83
76
92
98
104
113
121
120
121
127
136
131
134
132
133
133
136
136
139
145
147
141
151
145
133
137
137
129
128
113
105
83
69
57
49
40
24
27
18
12
0
-25
-35
-46
-46
-58
-56
-63
-66
-67
-79
-84
-92
-90
-97
-94
-97
-103
-103
-95
-102
-111
-101
-100
-98
-104
-106
-103
-104
-105
-102
-107
-108
-109
-118
-116
-109
-111
-117
-108
-114
-118
-118
-112
-115
-114
-113
-115
-116
-110
-112
-115
-120
-126
-126
-122
-119
-123
-119
-123
-129
-133
-134
-135
-137
-130
-131
-134
-129
-119
-112
-112
-121
-122
-127
-118
-117
-118
-120
-124
-120
-124
-117
-109
-115
-115
-116
-106
-97
-88
-104
-115
-115
-100
-101
-100
-95
-91
-85
-85
-84
-88
-84
-92
-88
-86
-80
-85
-92
-92
-84
-87
-82
-88
-87
-80
-73
-72
-71
-69
-68
-88
-88
-75
-77
-83
-79
-79
-76
-84
-77
-81
-95
-92
-86
-82
-79
-80
-81
-72
-84
-96
-91
-90
-87
-95
-94
-94
-90
-89
-88
-90
-88
-88
-97
-96
-92
-87
-87
-103
-93
-103
-107
-100
-106
-103
-100
-98
-104
-98
-97
-90
-90
-98
-98
-92
-87
-93
-89
-98
-99
-98
-92
-86
-95
-101
-87
-87
-93
-76
-82
-87
-84
-80
-84
-80
-78
-75
-72
-74
-70
-77
-80
-72
-79
-90
-83
-78
-66
-64
-80
-82
-85
-80
-86
-90
-69
-74
-85
-83
-87
-93
-92
-85
-99
-97
-90
-94
-91
-84
-86
-91
-93
-95
-92
-93
-86
-90
-82
-84
-85
-85
-88
-89
-84
-82
-84
-87
-90
-96
-85
-92
-84
-84
-85
-77
-79
-74
-68
-73
-83
-91
-89
-87
-81
-82
-70
-81
-86
-76
-59
-71
-79
-84
-86
-86
-90
-89
-78
-73
-70
-82
-81
-75
-85
-91
-80
-74
-74
-81
-85
-80
-75
-81
-70
-74
-72
-74
-69
-73
-66
-77
-80
-78
-80
-77
-64
-58
-49
-40
-41
-53
-52
-60
-53
-45
-32
-28
-1
16
24
27
23
21
21
10
18
22
32
34
42
40
43
45
41
39
29
12
13
8
9
-2
-23
-36
-65
-61
-54
-66
-72
-71
-77
-85
-83
-84
-74
-84
-79
-75
-76
-77
-73
-76
-76
-81
-84
-90
-96
-91
-94
-94
-90
-91
-72
-56
-39
-69
-73
-33
38
127
196
326
490
590
728
911
1059
1153
1227
1242
1151
1010
831
579
379
190
11
-51
-61
-77
-88
-125
-157
-151
-151
-136
-109
-108
-104
-92
-78
-68
-63
-62
-70
-81
-89
-70
-64
-71
-71
-67
-63
-61
-50
-61
-53
-46
-49
-50
-50
-49
-45
-45
-50
-42
-30
-36
-41
-41
-31
-30
-33
-48
-42
-44
-40
-34
-34
-32
-39
-40
-33
-37
-28
-28
-40
-34
-26
-13
-27
-20
-11
-18
-24
-11
-7
-18
-11
0
10
18
14
10
3
10
17
23
18
27
31
33
29
34
37
44
49
55
51
62
60
60
81
82
84
82
87
87
104
105
102
122
134
137
145
145
162
168
170
189
185
184
194
203
204
215
220
222
229
233
232
228
226
229
228
232
236
241
239
232
240
226
219
215
215
209
202
199
188
174
166
147
139
125
107
107
91
84
78
69
56
51
43
39
39
16
22
21
8
11
-1
-12
-8
0
1
-7
-7
-15
-19
-15
-6
-12
-21
-21
-29
-33
-27
-27
-22
-20
-19
-33
-38
-35
-40
-36
-26
-29
-35
-33
-33
-37
-39
-40
-50
-35
-24
-32
-43
-33
-29
-32
-37
-29
-41
-32
-24
-39
-38
-37
-38
-31
-32
-36
-37
-34
-36
-37
-33
-23
-19
-28
-32
-32
-30
-24
-37
-39
-38
-28
-21
-20
-25
-22
-29
-34
-18
-14
-20
-26
-23
-13
-18
-23
-27
-31
-26
-23
-15
-17
-25
-32
-30
-26
-19
-25
-31
-27
-29
-27
-30
-35
-36
-41
-44
-39
-38
-35
-31
-34
-26
-39
-40
-34
-31
-32
-32
-31
-41
-45
-47
-44
-46
-45
-45
-59
-50
-43
-48
-53
-45
-54
-53
-63
-72
-71
-60
-62
-61
-66
-61
-60
-59
-63
-74
-66
-61
-71
-71
-63
-65
-69
-68
-65
-62
-78
-72
-74
-71
-77
-71
-78
-76
-73
-74
-73
-61
-58
-65
-55
-57
-70
-73
-69
-70
-73
-68
-64
-72
-70
-86
-88
-85
-87
-93
-84
-92
-93
-91
-91
-100
-107
-110
-100
-98
-94
-82
-83
-78
-81
-86
-81
-80
-73
-81
-88
-89
-81
-76
-73
-73
-69
-70
-71
-74
-64
-63
-68
-65
-61
-73
-73
-72
-80
-84
-93
-73
-75
-80
-79
-74
-84
-83
-80
-75
-84
-88
-87
-80
-83
-84
-91
-93
-88
-86
-87
-72
-75
-76
-70
-69
-79
-75
-80
-80
-73
-64
-75
-73
-58
-57
-59
-60
-59
-55
-59
-59
-59
-48
-41
-41
-40
-46
-40
-35
-44
-44
-44
-34
-23
-18
-3
14
24
23
16
6
4
9
24
37
31
27
33
42
34
33
33
35
25
14
8
-3
-9
-15
-33
-46
-59
-70
-65
-80
-90
-88
-83
-94
-88
-90
-96
-95
-98
-96
-100
-94
-90
-94
-108
-96
-99
-108
-106
-107
-111
-111
-108
-111
-92
-73
-81
-96
-84
-32
39
109
195
359
496
603
752
923
1034
1119
1175
1182
1081
925
746
519
323
130
-21
-55
-80
-100
-128
-153
-167
-160
-165
-152
-147
-142
-137
-125
-117
-109
-111
-109
-111
-110
-112
-109
-103
-103
-104
-100
-93
-87
-83
-81
-81
-91
-92
-85
-85
-80
-80
-77
-68
-69
-71
-68
-71
-73
-65
-81
-78
-77
-72
-77
-67
-69
-74
-78
-79
-69
-57
-60
-59
-53
-44
-38
-33
-30
-48
-47
-40
-30
-30
-43
-34
-26
-27
-25
-21
-19
-12
-5
-11
-11
-3
-5
5
1
0
1
-4
-4
3
13
26
22
15
27
29
35
39
49
54
59
69
74
74
81
87
92
102
110
120
133
141
143
153
165
169
176
179
175
178
182
189
195
195
204
215
210
195
199
203
202
200
209
205
202
205
208
195
190
189
175
172
166
153
130
114
98
91
83
68
48
40
33
20
11
0
0
-10
-16
-19
-20
-26
-43
-42
-54
-53
-51
-51
-48
-49
-46
-48
-52
-71
-72
-69
-67
-73
-66
-62
-67
-67
-70
-72
-61
-65
-60
-55
-53
-48
-47
-43
-48
-59
-56
-51
-57
-51
-49
-69
-66
-55
-55
-61
-61
-60
-60
-59
-55
-58
-51
-48
-54
-62
-60
-60
-65
-66
-73
-75
-69
-72
-83
-82
-78
-78
-84
-86
-79
-87
-82
-73
-77
-74
-70
-72
-76
-77
-77
-67
-81
-81
-76
-77
-74
-75
-68
-67
-66
-65
-60
-60
-62
-60
-60
-55
-52
-55
-50
-58
-69
-66
-62
-57
-53
-55
-57
-60
-52
-67
-59
-53
-56
-64
-61
-55
-65
-77
-70
-71
-73
-74
-77
-84
-82
-86
-84
-81
-80
-76
-78
-81
-84
-84
-85
-86
-82
-79
-80
-84
-79
-79
-78
-89
-97
-89
-90
-90
-81
-86
-77
-78
-77
-83
-87
-84
-83
-86
-84
-91
-87
-82
-79
-83
-78
-88
-90
-87
-85
-87
-87
-88
-86
-92
-93
-87
-94
-95
-97
-100
-92
-92
-98
-103
-100
-95
-88
-82
-88
-94
-89
-85
-91
-93
-97
-93
-103
-101
-98
-101
-108
-103
-99
-102
-94
-95
-101
-102
-101
-106
-107
-101
-101
-107
-113
-110
-113
-108
-108
-114
-108
-111
-109
-112
-107
-113
-110
-109
-107
-111
-112
-98
-100
-104
-114
-108
-119
-114
-107
-113
-112
-112
-113
-119
-126
-128
-133
-126
-111
-122
-136
-139
-133
-147
-146
-145
-146
-142
-139
-142
-144
-142
-142
-140
-140
-142
-140
-134
-124
-114
-115
-126
-122
-118
-112
-133
-148
-143
-137
-137
-133
-123
-115
-124
-112
-119
-121
-127
-125
-119
-113
-101
-74
-71
-60
-59
-67
-66
-61
-67
-57
-41
-44
-38
-27
-18
-29
-28
-24
-25
-37
-44
-52
-58
-58
-65
-74
-96
-111
-119
-134
-147
-147
-157
-155
-157
-172
-164
-170
-173
-174
-168
-169
-177
-176
-169
-172
-170
-165
-169
-168
-168
-170
-174
-178
-174
-157
-134
-135
-162
-173
-120
-59
7
93
223
402
508
632
807
946
1051
1141
1176
1125
998
831
620
414
221
39
-65
-72
-110
-134
-160
-190
-192
-195
-188
-169
-169
-169
-164
-151
-131
-137
-139
-146
-145
-145
-135
-144
-143
-143
-139
-137
-134
-132
-133
-127
-128
-133
-135
-130
-133
-135
-144
-142
-141
-138
-133
-129
-135
-136
-134
-137
-134
-134
-129
-133
-123
-123
-131
-131
-130
-130
-123
-117
-121
-119
-106
-111
-117
-123
-120
-124
-122
-110
-117
-112
-108
-107
-105
-91
-92
-89
-92
-87
-81
-83
-82
-83
-86
-81
-78
-79
-73
-70
-61
-57
-56
-51
-49
-45
-36
-32
-31
-22
-21
-19
-5
4
11
13
20
32
33
39
54
57
68
68
70
70
77
78
79
96
102
100
114
114
111
104
103
99
108
111
115
123
127
123
118
116
110
103
100
102
97
88
85
79
57
44
42
31
29
17
11
2
-15
-31
-47
-53
-54
-65
-70
-78
-93
-100
-108
-102
-108
-108
-123
-136
-133
-130
-136
-132
-138
-145
-144
-144
-143
-138
-147
-139
-145
-152
-151
-152
-156
-153
-149
-152
-144
-139
-145
-155
-156
-149
-155
-161
-160
-161
-160
-161
-164
-163
-156
-158
-163
-165
-158
-160
-161
-158
-148
-153
-144
-146
-154
-162
-159
-166
-173
-167
-168
-163
-163
-161
-156
-161
-152
-151
-155
-149
-136
-136
-142
-153
-155
-150
-144
-148
-162
-157
-149
-148
-151
-151
-155
-164
-164
-167
-159
-153
-149
-150
-162
-161
-154
-155
-145
-141
-140
-135
-137
-146
-142
-149
-147
-152
-144
-148
-151
-147
-149
-156
-152
-154
-167
-166
-162
-154
-158
-155
-162
-156
-154
-158
-170
-169
-168
-170
-180
-171
-171
-172
-179
-184
-191
-185
-190
-196
-190
-178
-171
-161
-177
-200
-192
-186
-197
-188
-194
-179
-176
-187
-182
-184
-188
-172
-173
-187
-186
-182
-180
-189
-179
-184
-198
-199
-197
-197
-192
-190
-200
-204
-200
-199
-201
-200
-200
-197
-188
-193
-192
-203
-200
-190
-191
-196
-194
-202
-206
-198
-196
-199
-191
-187
-194
-195
-194
-182
-187
-185
-171
-193
-189
-196
-196
-198
-196
-204
-188
-182
-181
-186
-176
-182
-189
-187
-192
-196
-192
-199
-193
-196
-192
-190
-195
-200
-194
-195
-204
-206
-202
-199
-197
-204
-205
-198
-192
-198
-199
-204
-192
-193
-186
-193
-203
-216
-205
-203
-196
-194
-195
-196
-189
-193
-187
-198
-199
-198
-198
-192
-181
-189
-186
-175
-180
-187
-177
-167
-172
-167
-164
-163
-169
-149
-155
-162
-156
-142
-142
-138
-149
-153
-155
-149
-149
-146
-125
-112
-102
-82
-96
-94
-103
-105
-98
-80
-86
-79
-69
-68
-67
-67
-82
-94
-93
-108
-97
-99
-127
-138
-154
-159
-170
-184
-194
-206
-221
-217
-216
-211
-215
-217
-219
-223
-229
-231
-229
-236
-236
-236
-240
-232
-231
-214
-216
-213
-222
-223
-221
-206
-184
-155
-154
-178
-194
-160
-89
-21
57
186
361
470
595
779
929
1037
1131
1148
1067
923
752
530
309
111
-73
-165
-167
-210
-223
-237
-265
-264
-265
-251
-239
-235
-218
-215
-200
-203
-191
-196
-188
-201
-201
-200
-196
-198
-191
-195
-195
-192
-185
-197
-198
-193
-185
-184
-194
-182
-183
-179
-172
-168
-174
-172
-156
-170
-174
-170
-168
-171
-152
-160
-160
-156
-169
-160
-166
-162
-163
-163
-160
-162
-163
-161
-155
-171
-159
-154
-159
-158
-149
-142
-151
-148
-157
-158
-142
-143
-134
-129
-126
-116
-117
-125
-125
-119
-113
-108
-101
-91
-80
-80
-74
-73
